t	ekg	optical	pressure	accel_x	accel_y	accel_z
0	0.076082	-23.832	-22.968	-0.006355	0.0047035	0.0069683
0.002	0.075559	-24.245	-23.016	-0.0060243	0.0046203	0.0068657
0.004	0.07462	-24.658	-23.064	-0.0056936	0.004537	0.0067631
0.006	0.073703	-25.078	-23.112	-0.0053629	0.0044538	0.0066605
0.008	0.073235	-25.506	-23.16	-0.0050321	0.0043706	0.0065579
0.01	0.073548	-25.937	-23.221	-0.0047014	0.0042874	0.0064553
0.012	0.074803	-26.371	-23.293	-0.0043707	0.0042042	0.0063527
0.014	0.076956	-26.805	-23.366	-0.00404	0.0041209	0.0062501
0.016	0.079762	-27.237	-23.433	-0.0041527	0.0040217	0.0059177
0.018	0.082822	-27.665	-23.501	-0.0042654	0.0039224	0.0055852
0.02	0.085662	-28.087	-23.54	-0.0043781	0.0038231	0.0052528
0.022	0.087827	-28.5	-23.552	-0.0044908	0.0037239	0.0049204
0.024	0.088983	-28.904	-23.563	-0.0046035	0.0036246	0.004588
0.026	0.088971	-29.295	-23.453	-0.0050177	0.0034082	0.0042873
0.028	0.087847	-29.673	-23.344	-0.0054319	0.0031917	0.0039866
0.03	0.085869	-30.035	-23.141	-0.0058461	0.0029753	0.003686
0.032	0.083433	-30.38	-22.846	-0.0062603	0.0027588	0.0033853
0.034	0.080998	-30.705	-22.551	-0.0066745	0.0025424	0.0030847
0.036	0.078994	-31.012	-22.019	-0.0068238	0.0021268	0.0031788
0.038	0.077732	-31.297	-21.486	-0.0069732	0.0017112	0.0032729
0.04	0.077358	-31.56	-20.822	-0.0071225	0.0012956	0.0033671
0.042	0.077837	-31.8	-20.026	-0.0072718	0.00088006	0.0034612
0.044	0.078973	-32.017	-19.23	-0.0074211	0.00046447	0.0035554
0.046	0.080464	-32.21	-18.171	-0.0069226	-3.5503e-05	0.0040268
0.048	0.081982	-32.378	-17.111	-0.006424	-0.00053547	0.0044983
0.05	0.083232	-32.521	-15.934	-0.0059255	-0.0010354	0.0049698
0.052	0.084024	-32.639	-14.637	-0.0054269	-0.0015354	0.0054413
0.054	0.084296	-32.732	-13.341	-0.0049284	-0.0020354	0.0059128
0.056	0.084106	-32.8	-11.85	-0.0039891	-0.0022837	0.0063039
0.058	0.083601	-32.843	-10.36	-0.0030497	-0.0025321	0.006695
0.06	0.082971	-32.862	-8.7979	-0.0021104	-0.0027805	0.0070861
0.062	0.0824	-32.857	-7.1644	-0.0011711	-0.0030288	0.0074771
0.064	0.082015	-32.828	-5.5309	-0.00023178	-0.0032772	0.0078682
0.066	0.081866	-32.776	-3.806	0.00059063	-0.0030472	0.0077869
0.068	0.081931	-32.702	-2.0811	0.001413	-0.0028173	0.0077057
0.07	0.082139	-32.605	-0.33481	0.0022354	-0.0025873	0.0076244
0.072	0.082407	-32.487	1.4329	0.0030578	-0.0023574	0.0075431
0.074	0.082676	-32.348	3.2006	0.0038802	-0.0021274	0.0074618
0.076	0.082931	-32.189	4.9652	0.00419	-0.0016537	0.0070125
0.078	0.083213	-32.01	6.7298	0.0044998	-0.0011799	0.0065633
0.08	0.083604	-31.812	8.4701	0.0048096	-0.00070613	0.006114
0.082	0.084186	-31.596	10.186	0.0051194	-0.00023236	0.0056647
0.084	0.085003	-31.363	11.902	0.0054292	0.0002414	0.0052155
0.086	0.086025	-31.112	13.523	0.0052546	0.00044286	0.004816
0.088	0.087138	-30.845	15.144	0.00508	0.00064433	0.0044166
0.09	0.088136	-30.562	16.695	0.0049054	0.0008458	0.0040172
0.092	0.088759	-30.264	18.176	0.0047308	0.0010473	0.0036177
0.094	0.088756	-29.952	19.657	0.0045562	0.0012487	0.0032183
0.096	0.087936	-29.626	20.959	0.0042813	0.00097512	0.0030812
0.098	0.086225	-29.287	22.261	0.0040063	0.00070152	0.0029442
0.1	0.0837	-28.935	23.46	0.0037314	0.00042791	0.0028071
0.102	0.080586	-28.572	24.556	0.0034565	0.00015431	0.00267
0.104	0.077216	-28.197	25.653	0.0031816	-0.0001193	0.002533
0.106	0.073976	-27.813	26.536	0.0032563	-0.00052181	0.0024746
0.108	0.071218	-27.419	27.42	0.0033309	-0.00092433	0.0024161
0.11	0.069172	-27.018	28.203	0.0034056	-0.0013268	0.0023577
0.112	0.067905	-26.609	28.886	0.0034803	-0.0017294	0.0022993
0.114	0.067293	-26.195	29.568	0.003555	-0.0021319	0.0022408
0.116	0.067044	-25.775	30.08	0.0040825	-0.0022219	0.0019889
0.118	0.066749	-25.352	30.592	0.0046101	-0.0023119	0.0017369
0.12	0.065985	-24.927	31.037	0.0051376	-0.0024019	0.0014849
0.122	0.064409	-24.502	31.415	0.0056652	-0.0024919	0.0012329
0.124	0.061836	-24.077	31.793	0.0061927	-0.0025819	0.00098098
0.126	0.058277	-23.655	32.072	0.0067566	-0.0023264	0.00052094
0.128	0.053949	-23.237	32.352	0.0073205	-0.0020709	6.0903e-05
0.13	0.049233	-22.827	32.596	0.0078844	-0.0018154	-0.00039913
0.132	0.044583	-22.423	32.802	0.0084483	-0.0015599	-0.00085917
0.134	0.040414	-22.03	33.009	0.0090122	-0.0013044	-0.0013192
0.136	0.037009	-21.648	33.155	0.0090901	-0.00097506	-0.001768
0.138	0.034446	-21.281	33.3	0.009168	-0.0006457	-0.0022169
0.14	0.032579	-20.928	33.414	0.0092459	-0.00031634	-0.0026657
0.142	0.031052	-20.594	33.498	0.0093239	1.3019e-05	-0.0031145
0.144	0.029383	-20.278	33.582	0.0094018	0.00034238	-0.0035633
0.146	0.027075	-19.984	33.599	0.0089719	0.00060658	-0.0037987
0.148	0.023741	-19.712	33.616	0.0085421	0.00087079	-0.0040341
0.15	0.019196	-19.465	33.6	0.0081122	0.001135	-0.0042696
0.152	0.013519	-19.242	33.55	0.0076823	0.0013992	-0.004505
0.154	0.0070643	-19.047	33.5	0.0072525	0.0016634	-0.0047404
0.156	0.00040235	-18.879	33.393	0.0067965	0.0019386	-0.0047182
0.158	-0.0057896	-18.74	33.286	0.0063405	0.0022137	-0.004696
0.16	-0.010859	-18.629	33.16	0.0058845	0.0024889	-0.0046738
0.162	-0.014307	-18.547	33.016	0.0054285	0.002764	-0.0046516
0.164	-0.015893	-18.494	32.871	0.0049725	0.0030392	-0.0046294
0.166	-0.015692	-18.469	32.717	0.0048595	0.0033097	-0.0044666
0.168	-0.014081	-18.472	32.563	0.0047465	0.0035802	-0.0043038
0.17	-0.011664	-18.502	32.417	0.0046335	0.0038506	-0.004141
0.172	-0.0091498	-18.557	32.278	0.0045205	0.0041211	-0.0039782
0.174	-0.007218	-18.636	32.14	0.0044075	0.0043916	-0.0038154
0.176	-0.0063795	-18.737	32.032	0.0044721	0.0044368	-0.0037593
0.178	-0.00687	-18.856	31.925	0.0045367	0.004482	-0.0037032
0.18	-0.0086166	-18.993	31.833	0.0046013	0.0045272	-0.0036471
0.182	-0.011263	-19.142	31.757	0.0046659	0.0045724	-0.003591
0.184	-0.014239	-19.303	31.681	0.0047305	0.0046176	-0.0035349
0.186	-0.016894	-19.469	31.623	0.0045253	0.0043211	-0.0038212
0.188	-0.018638	-19.641	31.564	0.0043202	0.0040246	-0.0041075
0.19	-0.019058	-19.809	31.501	0.004115	0.0037281	-0.0043938
0.192	-0.018007	-19.976	31.436	0.0039098	0.0034317	-0.0046801
0.194	-0.015636	-20.13	31.37	0.0037047	0.0031352	-0.0049665
0.196	-0.012349	-20.274	31.273	0.0030617	0.0027259	-0.0055669
0.198	-0.0087236	-20.398	31.175	0.0024188	0.0023165	-0.0061673
0.2	-0.0053825	-20.502	31.052	0.0017758	0.0019072	-0.0067677
0.202	-0.0028669	-20.578	30.904	0.0011329	0.0014978	-0.0073681
0.204	-0.0015268	-20.625	30.756	0.00048998	0.0010885	-0.0079685
0.206	-0.0014541	-20.636	30.551	-0.00023668	0.00089663	-0.008537
0.208	-0.0024738	-20.61	30.345	-0.00096333	0.00070475	-0.0091056
0.21	-0.004192	-20.54	30.112	-0.00169	0.00051287	-0.0096741
0.212	-0.0060837	-20.427	29.85	-0.0024166	0.00032099	-0.010243
0.214	-0.0076067	-20.263	29.589	-0.0031433	0.00012911	-0.010811
0.216	-0.0083222	-20.05	29.281	-0.0034316	0.0001983	-0.011013
0.218	-0.007984	-19.782	28.973	-0.0037199	0.00026749	-0.011214
0.22	-0.0065743	-19.46	28.644	-0.0040083	0.00033669	-0.011416
0.222	-0.0042947	-19.08	28.296	-0.0042966	0.00040588	-0.011617
0.224	-0.0015182	-18.643	27.948	-0.0045849	0.00047507	-0.011819
0.226	0.0013001	-18.148	27.562	-0.0043673	0.00058412	-0.011687
0.228	0.00374	-17.596	27.176	-0.0041498	0.00069318	-0.011556
0.23	0.0055125	-16.986	26.768	-0.0039322	0.00080223	-0.011424
0.232	0.0065056	-16.321	26.34	-0.0037146	0.00091128	-0.011292
0.234	0.006804	-15.602	25.912	-0.003497	0.0010203	-0.011161
0.236	0.0066737	-14.83	25.434	-0.0032802	0.0010206	-0.011021
0.238	0.0064836	-14.011	24.957	-0.0030633	0.0010208	-0.010882
0.24	0.0066026	-13.145	24.452	-0.0028465	0.001021	-0.010743
0.242	0.007309	-12.239	23.92	-0.0026297	0.0010212	-0.010604
0.244	0.0087215	-11.294	23.389	-0.0024128	0.0010214	-0.010464
0.246	0.010762	-10.319	22.806	-0.0026161	0.00096589	-0.010519
0.248	0.013161	-9.3145	22.223	-0.0028194	0.00091033	-0.010574
0.25	0.015517	-8.2906	21.623	-0.0030226	0.00085477	-0.010629
0.252	0.017391	-7.2477	21.003	-0.0032259	0.00079921	-0.010683
0.254	0.018408	-6.1977	20.384	-0.0034291	0.00074365	-0.010738
0.256	0.018349	-5.1406	19.752	-0.0038012	0.00071016	-0.010841
0.258	0.017206	-4.089	19.12	-0.0041733	0.00067668	-0.010943
0.26	0.015206	-3.0428	18.496	-0.0045454	0.00064319	-0.011046
0.262	0.012778	-2.0148	17.879	-0.0049175	0.0006097	-0.011148
0.264	0.01046	-1.005	17.262	-0.0052896	0.00057622	-0.011251
0.266	0.0087942	-0.025468	16.687	-0.005266	0.00056863	-0.011118
0.268	0.0082106	0.92366	16.111	-0.0052424	0.00056105	-0.010984
0.27	0.0089376	1.8311	15.565	-0.0052188	0.00055347	-0.010851
0.272	0.01094	2.6967	15.049	-0.0051953	0.00054589	-0.010718
0.274	0.01391	3.5107	14.532	-0.0051717	0.00053831	-0.010584
0.276	0.017327	4.2729	14.082	-0.0046425	0.00059873	-0.010124
0.278	0.020558	4.9751	13.631	-0.0041133	0.00065915	-0.0096629
0.28	0.022982	5.6173	13.212	-0.003584	0.00071957	-0.0092023
0.282	0.024114	6.1934	12.825	-0.0030548	0.00077999	-0.0087417
0.284	0.023706	6.7034	12.437	-0.0025256	0.0008404	-0.0082811
0.286	0.021811	7.1436	12.103	-0.0019124	0.0010542	-0.0076712
0.288	0.018778	7.5138	11.77	-0.0012992	0.001268	-0.0070613
0.29	0.015193	7.813	11.457	-0.00068605	0.0014818	-0.0064514
0.292	0.011769	8.0409	11.167	-7.2863e-05	0.0016956	-0.0058415
0.294	0.0092081	8.1991	10.876	0.00054033	0.0019094	-0.0052316
0.296	0.0080743	8.2874	10.62	0.00086313	0.0021891	-0.0047456
0.298	0.0086774	8.3098	10.364	0.0011859	0.0024687	-0.0042596
0.3	0.011016	8.2661	10.123	0.0015087	0.0027484	-0.0037735
0.302	0.014778	8.1627	9.8979	0.0018315	0.0030281	-0.0032875
0.304	0.019391	7.9994	9.6722	0.0021543	0.0033078	-0.0028015
0.306	0.024135	7.7845	9.4747	0.002192	0.003335	-0.0025869
0.308	0.028274	7.5181	9.2772	0.0022298	0.0033623	-0.0023724
0.31	0.031193	7.21	9.093	0.0022675	0.0033895	-0.0021578
0.312	0.032501	6.8603	8.922	0.0023052	0.0034168	-0.0019432
0.314	0.032095	6.4803	8.751	0.0023429	0.0034441	-0.0017287
0.316	0.030168	6.07	8.6035	0.0022883	0.0029951	-0.0016767
0.318	0.02716	5.6413	8.4559	0.0022338	0.0025461	-0.0016248
0.32	0.023662	5.1944	8.3177	0.0021792	0.0020971	-0.0015728
0.322	0.020302	4.7415	8.1889	0.0021247	0.0016481	-0.0015209
0.324	0.017621	4.2827	8.06	0.0020701	0.0011991	-0.0014689
0.326	0.01598	3.8302	7.9449	0.002071	0.00045727	-0.0012951
0.328	0.015508	3.3838	7.8298	0.002072	-0.00028454	-0.0011214
0.33	0.016101	2.955	7.7203	0.002073	-0.0010264	-0.00094759
0.332	0.017459	2.5438	7.6162	0.0020739	-0.0017682	-0.00077383
0.334	0.019167	2.1604	7.5122	0.0020749	-0.00251	-0.00060006
0.336	0.020789	1.8047	7.4205	0.0021966	-0.0031143	-0.00014222
0.338	0.021974	1.4853	7.3289	0.0023183	-0.0037186	0.00031562
0.34	0.022515	1.2022	7.2463	0.00244	-0.0043229	0.00077346
0.342	0.022372	0.96201	7.1726	0.0025617	-0.0049272	0.0012313
0.344	0.021679	0.76465	7.0989	0.0026834	-0.0055316	0.0016891
0.346	0.020696	0.61449	7.0509	0.0028643	-0.0057624	0.002258
0.348	0.019734	0.51155	7.003	0.0030451	-0.0059932	0.0028269
0.35	0.019064	0.4578	6.9711	0.003226	-0.0062241	0.0033958
0.352	0.01886	0.45323	6.9553	0.0034068	-0.0064549	0.0039647
0.354	0.019165	0.49744	6.9395	0.0035877	-0.0066858	0.0045336
0.356	0.019875	0.59041	6.9576	0.0036027	-0.0066441	0.0048641
0.358	0.020762	0.72939	6.9757	0.0036178	-0.0066025	0.0051945
0.36	0.021532	0.91437	7.0084	0.0036328	-0.0065608	0.005525
0.362	0.021909	1.1404	7.0556	0.0036478	-0.0065191	0.0058555
0.364	0.021695	1.4076	7.1028	0.0036629	-0.0064775	0.0061859
0.366	0.020816	1.709	7.1684	0.0033229	-0.0063279	0.0061243
0.368	0.019344	2.0447	7.2341	0.002983	-0.0061782	0.0060626
0.37	0.017485	2.4063	7.3019	0.0026431	-0.0060286	0.0060009
0.372	0.015537	2.7938	7.3721	0.0023031	-0.005879	0.0059392
0.374	0.013822	3.1976	7.4422	0.0019632	-0.0057293	0.0058775
0.376	0.012613	3.6179	7.5037	0.0013898	-0.0054678	0.005627
0.378	0.012083	4.0445	7.5653	0.00081644	-0.0052063	0.0053766
0.38	0.012268	4.4772	7.6181	0.00024308	-0.0049448	0.0051262
0.382	0.013066	4.9059	7.6622	-0.00033028	-0.0046833	0.0048758
0.384	0.014256	5.3304	7.7062	-0.00090365	-0.0044218	0.0046254
0.386	0.015566	5.7408	7.7294	-0.0013474	-0.0039804	0.0045161
0.388	0.016726	6.137	7.7525	-0.0017912	-0.0035391	0.0044068
0.39	0.01754	6.5097	7.7659	-0.002235	-0.0030977	0.0042976
0.392	0.017915	6.859	7.7694	-0.0026788	-0.0026563	0.0041883
0.394	0.017887	7.1767	7.773	-0.0031226	-0.0022149	0.004079
0.396	0.017602	7.4628	7.7606	-0.0032176	-0.0016519	0.004219
0.398	0.017274	7.7107	7.7481	-0.0033126	-0.0010888	0.0043589
0.4	0.017127	7.9205	7.7293	-0.0034076	-0.00052579	0.0044988
0.402	0.017328	8.0874	7.704	-0.0035026	3.7257e-05	0.0046388
0.404	0.017946	8.2113	7.6787	-0.0035976	0.00060031	0.0047787
0.406	0.018929	8.2896	7.6414	-0.0034834	0.0011442	0.0050076
0.408	0.020107	8.3223	7.6042	-0.0033692	0.0016881	0.0052365
0.41	0.021228	8.3087	7.5605	-0.003255	0.002232	0.0054654
0.412	0.02202	8.2489	7.5103	-0.0031408	0.0027759	0.0056943
0.414	0.022257	8.1443	7.4601	-0.0030266	0.0033198	0.0059232
0.416	0.021816	7.9949	7.3951	-0.0029882	0.0037911	0.0060813
0.418	0.020707	7.8042	7.3302	-0.0029498	0.0042625	0.0062395
0.42	0.019089	7.5723	7.2578	-0.0029113	0.0047338	0.0063976
0.422	0.01724	7.3044	7.1779	-0.0028729	0.0052052	0.0065557
0.424	0.015499	7.0005	7.098	-0.0028344	0.0056765	0.0067138
0.426	0.014198	6.6675	7.0052	-0.0029613	0.0060962	0.0068105
0.428	0.013596	6.3054	6.9123	-0.0030883	0.0065159	0.0069072
0.43	0.013825	5.9223	6.8149	-0.0032152	0.0069356	0.0070039
0.432	0.014861	5.518	6.7128	-0.0033421	0.0073553	0.0071006
0.434	0.016536	5.1015	6.6108	-0.003469	0.007775	0.0071973
0.436	0.018574	4.6729	6.503	-0.003634	0.008061	0.0072743
0.438	0.020657	4.2412	6.3951	-0.003799	0.008347	0.0073513
0.44	0.022496	3.8064	6.2846	-0.0039639	0.0086331	0.0074284
0.442	0.023886	3.3779	6.1714	-0.0041289	0.0089191	0.0075054
0.444	0.024748	2.9555	6.0581	-0.0042939	0.0092051	0.0075824
0.446	0.025147	2.5479	5.9354	-0.0044151	0.0091455	0.0075673
0.448	0.025254	2.1552	5.8126	-0.0045363	0.0090859	0.0075522
0.45	0.025295	1.7852	5.6809	-0.0046575	0.0090263	0.0075371
0.452	0.02549	1.4377	5.5404	-0.0047787	0.0089667	0.007522
0.454	0.025993	1.1195	5.3999	-0.0048999	0.0089071	0.0075069
0.456	0.02684	0.8306	5.2322	-0.0049947	0.0083757	0.0073351
0.458	0.027926	0.57598	5.0645	-0.0050895	0.0078443	0.0071633
0.46	0.029036	0.35568	4.8797	-0.0051843	0.0073129	0.0069915
0.462	0.02989	0.17309	4.6778	-0.0052791	0.0067816	0.0068197
0.464	0.030208	0.028218	4.4759	-0.0053739	0.0062502	0.0066479
0.466	0.029786	-0.07738	4.2389	-0.0052841	0.0054036	0.0064676
0.468	0.028551	-0.1437	4.0019	-0.0051943	0.0045571	0.0062872
0.47	0.026596	-0.17103	3.7505	-0.0051046	0.0037105	0.0061068
0.472	0.024175	-0.15937	3.4848	-0.0050148	0.0028639	0.0059264
0.474	0.021654	-0.11081	3.2191	-0.004925	0.0020173	0.005746
0.476	0.019442	-0.025339	2.9368	-0.0043069	0.001219	0.0058233
0.478	0.017907	0.093303	2.6546	-0.0036889	0.00042062	0.0059005
0.48	0.017294	0.24512	2.3711	-0.0030708	-0.00037774	0.0059778
0.482	0.01767	0.42492	2.0863	-0.0024527	-0.0011761	0.006055
0.484	0.018908	0.63272	1.8016	-0.0018347	-0.0019745	0.0061323
0.486	0.020703	0.86219	1.5258	-0.00069278	-0.0024692	0.006471
0.488	0.022641	1.1133	1.2501	0.00044909	-0.002964	0.0068098
0.49	0.024283	1.3789	0.9818	0.001591	-0.0034588	0.0071486
0.492	0.025256	1.6591	0.72097	0.0027328	-0.0039536	0.0074873
0.494	0.02534	1.946	0.46015	0.0038747	-0.0044484	0.0078261
0.496	0.024508	2.2399	0.21434	0.0048828	-0.0047286	0.0080303
0.498	0.022942	2.5328	-0.031467	0.0058908	-0.0050088	0.0082345
0.5	0.020989	2.8248	-0.27121	0.0068989	-0.005289	0.0084387
0.502	0.019083	3.1085	-0.50489	0.007907	-0.0055692	0.0086429
0.504	0.017655	3.3837	-0.73856	0.008915	-0.0058494	0.0088471
0.506	0.017036	3.6437	-0.96155	0.0090703	-0.0061825	0.008564
0.508	0.017378	3.8884	-1.1845	0.0092256	-0.0065155	0.0082808
0.51	0.018616	4.1117	-1.4003	0.0093808	-0.0068485	0.0079976
0.512	0.020482	4.3138	-1.6088	0.0095361	-0.0071816	0.0077144
0.514	0.022553	4.4897	-1.8173	0.0096913	-0.0075146	0.0074312
0.516	0.024349	4.6394	-2.0014	0.0090123	-0.007912	0.0068576
0.518	0.025425	4.7594	-2.1855	0.0083332	-0.0083095	0.0062839
0.52	0.025477	4.8497	-2.3507	0.0076541	-0.0087069	0.0057103
0.522	0.024417	4.9081	-2.4971	0.006975	-0.0091043	0.0051367
0.524	0.022406	4.9347	-2.6435	0.0062959	-0.0095018	0.004563
0.526	0.019819	4.9288	-2.7413	0.0054559	-0.0095926	0.0042461
0.528	0.017186	4.8903	-2.8392	0.0046158	-0.0096835	0.0039291
0.53	0.015103	4.8201	-2.9118	0.0037758	-0.0097743	0.0036121
0.532	0.014103	4.7182	-2.9592	0.0029357	-0.0098652	0.0032952
0.534	0.014543	4.5867	-3.0066	0.0020957	-0.0099561	0.0029782
0.536	0.016536	4.4255	-3.0144	0.0016282	-0.0094258	0.0030997
0.538	0.019915	4.238	-3.0221	0.0011608	-0.0088956	0.0032212
0.54	0.024245	4.0241	-3.0216	0.00069338	-0.0083653	0.0033427
0.542	0.028892	3.7881	-3.0127	0.00022595	-0.0078351	0.0034641
0.544	0.033126	3.5299	-3.0037	-0.00024149	-0.0073048	0.0035856
0.546	0.036247	3.2545	-3.007	-0.00037156	-0.0063718	0.0037348
0.548	0.037708	2.9618	-3.0103	-0.00050164	-0.0054389	0.003884
0.55	0.037204	2.6573	-3.0324	-0.00063172	-0.0045059	0.0040331
0.552	0.03473	2.3409	-3.0734	-0.0007618	-0.0035729	0.0041823
0.554	0.030591	2.018	-3.1145	-0.00089188	-0.00264	0.0043315
0.556	0.025355	1.6888	-3.2062	-0.00096991	-0.0019042	0.0040904
0.558	0.019758	1.3586	-3.2979	-0.0010479	-0.0011684	0.0038494
0.56	0.014586	1.0274	-3.4124	-0.001126	-0.00043269	0.0036083
0.562	0.010557	0.70014	-3.5497	-0.001204	0.00030307	0.0033672
0.564	0.0082038	0.37691	-3.6869	-0.001282	0.0010388	0.0031262
0.566	0.0077858	0.062127	-3.8474	-0.0014024	0.0012273	0.0026062
0.568	0.0092485	-0.24422	-4.0079	-0.0015228	0.0014157	0.0020862
0.57	0.012235	-0.53842	-4.164	-0.0016431	0.0016041	0.0015662
0.572	0.016148	-0.82049	-4.3158	-0.0017635	0.0017925	0.0010462
0.574	0.020235	-1.0876	-4.4675	-0.0018839	0.001981	0.00052621
0.576	0.023703	-1.3397	-4.5803	-0.0019238	0.0018272	0.00014558
0.578	0.02585	-1.575	-4.693	-0.0019636	0.0016735	-0.00023505
0.58	0.026177	-1.7935	-4.7776	-0.0020035	0.0015198	-0.00061568
0.582	0.024451	-1.9941	-4.8341	-0.0020434	0.0013661	-0.00099631
0.584	0.020742	-2.1769	-4.8906	-0.0020833	0.0012124	-0.0013769
0.586	0.01542	-2.3418	-4.8931	-0.0019304	0.0011196	-0.0014411
0.588	0.0090967	-2.4889	-4.8957	-0.0017776	0.0010267	-0.0015053
0.59	0.0025221	-2.6188	-4.882	-0.0016248	0.00093389	-0.0015695
0.592	-0.0035254	-2.7317	-4.852	-0.001472	0.00084106	-0.0016337
0.594	-0.0083509	-2.8289	-4.8221	-0.0013191	0.00074823	-0.0016979
0.596	-0.011443	-2.9104	-4.7926	-0.00099716	0.00084112	-0.0016376
0.598	-0.012544	-2.9784	-4.7631	-0.0006752	0.00093402	-0.0015772
0.6	-0.011686	-3.0327	-4.7501	-0.00035324	0.0010269	-0.0015168
0.602	-0.0091673	-3.0757	-4.7537	-3.1284e-05	0.0011198	-0.0014565
0.604	-0.00549	-3.1076	-4.7573	0.00029068	0.0012127	-0.0013961
0.606	-0.0012733	-3.1308	-4.8149	0.00064554	0.0013068	-0.0014552
0.608	0.0028393	-3.1454	-4.8725	0.0010004	0.0014009	-0.0015143
0.61	0.0062855	-3.154	-4.9585	0.0013553	0.001495	-0.0015733
0.612	0.0086761	-3.1566	-5.0728	0.0017101	0.0015891	-0.0016324
0.614	0.0098391	-3.1558	-5.1872	0.002065	0.0016832	-0.0016915
0.616	0.0098288	-3.1516	-5.3434	0.0022469	0.0015923	-0.0018671
0.618	0.0089074	-3.1464	-5.4997	0.0024288	0.0015014	-0.0020426
0.62	0.0074928	-3.1401	-5.6642	0.0026107	0.0014105	-0.0022182
0.622	0.0060824	-3.1347	-5.837	0.0027926	0.0013195	-0.0023938
0.624	0.0051722	-3.1303	-6.0097	0.0029745	0.0012286	-0.0025693
0.626	0.0051825	-3.1286	-6.1741	0.0027887	0.00097487	-0.0026202
0.628	0.0064048	-3.1295	-6.3385	0.002603	0.00072115	-0.0026711
0.63	0.0089735	-3.1342	-6.4911	0.0024172	0.00046742	-0.0027219
0.632	0.012858	-3.1429	-6.632	0.0022314	0.00021369	-0.0027728
0.634	0.017877	-3.1563	-6.7729	0.0020457	-4.0036e-05	-0.0028236
0.636	0.023736	-3.1746	-6.8897	0.001526	-0.00030834	-0.0025537
0.638	0.030071	-3.1981	-7.0065	0.0010063	-0.00057665	-0.0022837
0.64	0.036485	-3.2269	-7.1169	0.00048654	-0.00084496	-0.0020137
0.642	0.042595	-3.2613	-7.2209	-3.3174e-05	-0.0011133	-0.0017437
0.644	0.048056	-3.3012	-7.325	-0.00055289	-0.0013816	-0.0014737
0.646	0.052595	-3.3468	-7.4315	-0.00099018	-0.0015867	-0.0010129
0.648	0.056027	-3.3979	-7.538	-0.0014275	-0.0017919	-0.00055211
0.65	0.058268	-3.4546	-7.6502	-0.0018648	-0.001997	-9.1296e-05
