t	ekg	optical	pressure	accel_x	accel_y	accel_z
0.002	-0.0099156	-401.42	-9.4291	0.00111	0.0061017	-0.008227
0.004	-0.008536	-404.56	-9.2862	0.00079595	0.0058523	-0.0078449
0.006	-0.0072371	-407.62	-9.1434	0.00048191	0.0056029	-0.0074629
0.008	-0.0060627	-410.61	-9.0005	0.00016787	0.0053534	-0.0070808
0.01	-0.0050157	-413.5	-8.8576	-0.00014616	0.005104	-0.0066987
0.012	-0.0040571	-416.28	-8.6939	-0.0004602	0.0048545	-0.0063167
0.014	-0.0031165	-418.95	-8.5301	-0.00077424	0.0046051	-0.0059346
0.016	-0.0021099	-421.5	-8.3576	-0.0010883	0.0043557	-0.0055525
0.018	-0.00096024	-423.89	-8.1764	-0.0014023	0.0041062	-0.0051705
0.02	0.00038341	-426.15	-7.9953	-0.0017163	0.0038568	-0.0047884
0.022	0.0019347	-428.23	-7.7999	-0.0022602	0.0034296	-0.004452
0.024	0.0036678	-430.15	-7.6044	-0.0028041	0.0030023	-0.0041157
0.026	0.0055258	-431.87	-7.4029	-0.003348	0.0025751	-0.0037793
0.028	0.0074364	-433.4	-7.1952	-0.0038919	0.0021479	-0.0034429
0.03	0.0093312	-434.72	-6.9875	-0.0044358	0.0017206	-0.0031066
0.032	0.011163	-435.82	-6.7683	-0.0048272	0.0015297	-0.0029709
0.034	0.012919	-436.7	-6.5491	-0.0052187	0.0013388	-0.0028352
0.036	0.01462	-437.34	-6.3243	-0.0056102	0.0011479	-0.0026995
0.038	0.016316	-437.74	-6.0938	-0.0060017	0.00095701	-0.0025639
0.04	0.018072	-437.89	-5.8633	-0.0063932	0.00076611	-0.0024282
0.042	0.019948	-437.78	-5.6218	-0.0063834	0.00089335	-0.0024213
0.044	0.021985	-437.4	-5.3803	-0.0063736	0.0010206	-0.0024144
0.046	0.02419	-436.76	-5.1341	-0.0063638	0.0011478	-0.0024074
0.048	0.026535	-435.84	-4.8831	-0.0063539	0.0012751	-0.0024005
0.05	0.028963	-434.65	-4.6322	-0.0063441	0.0014023	-0.0023936
0.052	0.031402	-433.17	-4.3746	-0.0058935	0.0014839	-0.0023128
0.054	0.033782	-431.41	-4.1171	-0.0054428	0.0015655	-0.0022319
0.056	0.036053	-429.37	-3.8585	-0.0049921	0.0016471	-0.0021511
0.058	0.038198	-427.05	-3.5987	-0.0045414	0.0017287	-0.0020702
0.06	0.040237	-424.44	-3.339	-0.0040908	0.0018103	-0.0019893
0.062	0.042221	-421.55	-3.0821	-0.0033394	0.0014822	-0.0017108
0.064	0.044222	-418.38	-2.8252	-0.0025881	0.0011542	-0.0014322
0.066	0.046313	-414.93	-2.5721	-0.0018368	0.00082614	-0.0011537
0.068	0.048551	-411.21	-2.3229	-0.0010854	0.0004981	-0.00087513
0.07	0.050961	-407.22	-2.0737	-0.00033412	0.00017006	-0.00059657
0.072	0.053533	-402.96	-1.8359	0.00043411	-0.00049127	-0.00020322
0.074	0.05622	-398.43	-1.5982	0.0012023	-0.0011526	0.00019014
0.076	0.058953	-393.65	-1.3673	0.0019706	-0.001814	0.00058349
0.078	0.061654	-388.63	-1.1432	0.0027388	-0.0024753	0.00097684
0.08	0.064252	-383.35	-0.91909	0.003507	-0.0031366	0.0013702
0.082	0.066706	-377.84	-0.70919	0.0040311	-0.0037337	0.0016986
0.084	0.069006	-372.1	-0.4993	0.0045551	-0.0043308	0.0020269
0.086	0.071175	-366.14	-0.29615	0.0050792	-0.0049279	0.0023553
0.088	0.073266	-359.96	-0.099741	0.0056032	-0.0055249	0.0026837
0.09	0.075339	-353.57	0.096667	0.0061273	-0.006122	0.003012
0.092	0.077454	-346.98	0.28094	0.0063766	-0.0063813	0.0032091
0.094	0.079646	-340.21	0.46522	0.0066259	-0.0066407	0.0034063
0.096	0.081922	-333.24	0.64413	0.0068752	-0.0069	0.0036034
0.098	0.084255	-326.11	0.81768	0.0071245	-0.0071594	0.0038005
0.1	0.086589	-318.8	0.99122	0.0073738	-0.0074187	0.0039976
0.102	0.088853	-311.35	1.1551	0.0074826	-0.0073463	0.0041305
0.104	0.090978	-303.73	1.319	0.0075914	-0.0072739	0.0042634
0.106	0.092908	-295.99	1.4783	0.0077003	-0.0072015	0.0043963
0.108	0.094616	-288.1	1.6331	0.0078091	-0.0071291	0.0045292
0.11	0.096108	-280.1	1.7878	0.007918	-0.0070566	0.0046621
0.112	0.097414	-271.97	1.9336	0.0078973	-0.0067443	0.0047415
0.114	0.098588	-263.75	2.0794	0.0078767	-0.006432	0.0048208
0.116	0.099684	-255.42	2.2207	0.007856	-0.0061197	0.0049002
0.118	0.10075	-247	2.3574	0.0078354	-0.0058074	0.0049796
0.12	0.1018	-238.5	2.4941	0.0078147	-0.0054951	0.005059
0.122	0.10284	-229.93	2.6213	0.0074917	-0.0050182	0.0049437
0.124	0.10382	-221.29	2.7486	0.0071687	-0.0045413	0.0048284
0.126	0.1047	-212.59	2.8709	0.0068457	-0.0040644	0.004713
0.128	0.10541	-203.84	2.9882	0.0065227	-0.0035875	0.0045977
0.13	0.10589	-195.05	3.1055	0.0061997	-0.0031106	0.0044824
0.132	0.10611	-186.22	3.2123	0.005522	-0.0026257	0.0040574
0.134	0.10604	-177.36	3.3191	0.0048444	-0.0021408	0.0036324
0.136	0.10572	-168.48	3.4202	0.0041667	-0.0016558	0.0032073
0.138	0.10517	-159.59	3.5157	0.0034891	-0.0011709	0.0027823
0.14	0.10445	-150.69	3.6111	0.0028114	-0.00068592	0.0023573
0.142	0.10361	-141.79	3.6946	0.0020713	-0.00040579	0.0017497
0.144	0.10269	-132.89	3.778	0.0013312	-0.00012565	0.0011421
0.146	0.1017	-124.01	3.8552	0.00059114	0.00015448	0.00053449
0.148	0.10065	-115.14	3.9262	-0.00014895	0.00043461	-7.3105e-05
0.15	0.099504	-106.3	3.9971	-0.00088904	0.00071475	-0.0006807
0.152	0.098223	-97.481	4.0556	-0.0012842	0.00074732	-0.0011683
0.154	0.096764	-88.7	4.1141	-0.0016794	0.00077989	-0.0016559
0.156	0.095095	-79.955	4.1667	-0.0020746	0.00081246	-0.0021435
0.158	0.093199	-71.255	4.2134	-0.0024697	0.00084503	-0.0026311
0.16	0.091081	-62.599	4.2602	-0.0028649	0.0008776	-0.0031187
0.162	0.088767	-53.996	4.2966	-0.0028106	0.00087235	-0.0032868
0.164	0.086295	-45.445	4.333	-0.0027562	0.00086711	-0.0034549
0.166	0.083711	-36.952	4.365	-0.0027019	0.00086186	-0.0036231
0.168	0.081052	-28.518	4.3929	-0.0026475	0.00085662	-0.0037912
0.17	0.078344	-20.147	4.4207	-0.0025932	0.00085137	-0.0039594
0.172	0.075597	-11.839	4.4417	-0.0023764	0.0010176	-0.0038617
0.174	0.072803	-3.5965	4.4628	-0.0021597	0.0011838	-0.0037639
0.176	0.069942	4.5795	4.4812	-0.0019429	0.00135	-0.0036662
0.178	0.066992	12.688	4.497	-0.0017261	0.0015162	-0.0035684
0.18	0.063935	20.728	4.5128	-0.0015094	0.0016824	-0.0034707
0.182	0.060768	28.7	4.5241	-0.0014792	0.0019517	-0.003298
0.184	0.057502	36.604	4.5355	-0.001449	0.002221	-0.0031253
0.186	0.054166	44.441	4.5447	-0.0014188	0.0024903	-0.0029526
0.188	0.050801	52.21	4.5519	-0.0013886	0.0027596	-0.0027799
0.19	0.047451	59.914	4.559	-0.0013584	0.0030289	-0.0026072
0.192	0.044155	67.552	4.5619	-0.0015481	0.0031386	-0.0024705
0.194	0.040941	75.128	4.5647	-0.0017378	0.0032483	-0.0023337
0.196	0.037817	82.641	4.5653	-0.0019275	0.003358	-0.002197
0.198	0.034776	90.094	4.5637	-0.0021173	0.0034677	-0.0020603
0.2	0.031797	97.488	4.5621	-0.002307	0.0035774	-0.0019236
0.202	0.028855	104.83	4.5563	-0.002409	0.0033953	-0.0017589
0.204	0.025927	112.11	4.5506	-0.0025109	0.0032132	-0.0015942
0.206	0.023003	119.34	4.5432	-0.0026129	0.003031	-0.0014295
0.208	0.020088	126.51	4.5342	-0.0027148	0.0028489	-0.0012649
0.21	0.017205	133.64	4.5252	-0.0028168	0.0026668	-0.0011002
0.212	0.014393	140.72	4.5144	-0.002545	0.0023061	-0.00079745
0.214	0.011694	147.75	4.5036	-0.0022731	0.0019454	-0.00049473
0.216	0.0091485	154.73	4.4928	-0.0020013	0.0015847	-0.000192
0.218	0.0067839	161.67	4.482	-0.0017295	0.001224	0.00011072
0.22	0.0046074	168.56	4.4712	-0.0014577	0.00086325	0.00041344
0.222	0.0026041	175.41	4.4621	-0.00087988	0.0004967	0.00079237
0.224	0.00073909	182.21	4.4529	-0.00030204	0.00013014	0.0011713
0.226	-0.0010356	188.97	4.445	0.00027579	-0.00023642	0.0015502
0.228	-0.0027709	195.68	4.4383	0.00085363	-0.00060298	0.0019292
0.23	-0.00451	202.35	4.4317	0.0014315	-0.00096953	0.0023081
0.232	-0.0062793	208.96	4.4274	0.001988	-0.0012587	0.0025308
0.234	-0.0080823	215.53	4.4232	0.0025445	-0.0015478	0.0027536
0.236	-0.0098989	222.05	4.4195	0.0031011	-0.0018369	0.0029763
0.238	-0.01169	228.51	4.4164	0.0036576	-0.0021261	0.0031991
0.24	-0.013407	234.92	4.4133	0.0042142	-0.0024152	0.0034218
0.242	-0.015	241.27	4.4087	0.0045011	-0.0025947	0.0033766
0.244	-0.016428	247.56	4.4042	0.0047881	-0.0027742	0.0033314
0.246	-0.017671	253.78	4.3974	0.005075	-0.0029537	0.0032861
0.248	-0.018729	259.94	4.3882	0.005362	-0.0031332	0.0032409
0.25	-0.019626	266.02	4.379	0.005649	-0.0033127	0.0031957
0.252	-0.0204	272.03	4.3614	0.0056345	-0.0033644	0.0030844
0.254	-0.021098	277.95	4.3437	0.00562	-0.0034162	0.0029731
0.256	-0.021764	283.8	4.3201	0.0056055	-0.0034679	0.0028619
0.258	-0.022433	289.56	4.2904	0.0055911	-0.0035197	0.0027506
0.26	-0.023124	295.22	4.2607	0.0055766	-0.0035714	0.0026393
0.262	-0.023835	300.79	4.2161	0.0053511	-0.0035275	0.00275
0.264	-0.024549	306.26	4.1716	0.0051255	-0.0034836	0.0028606
0.266	-0.025238	311.63	4.1187	0.0049	-0.0034397	0.0029713
0.268	-0.025868	316.89	4.0575	0.0046745	-0.0033958	0.0030819
0.27	-0.026412	322.04	3.9963	0.004449	-0.003352	0.0031926
0.272	-0.02685	327.08	3.9183	0.0041533	-0.0032703	0.0035195
0.274	-0.027178	332	3.8404	0.0038575	-0.0031886	0.0038465
0.276	-0.027403	336.8	3.7548	0.0035618	-0.0031069	0.0041735
0.278	-0.027542	341.48	3.6617	0.0032661	-0.0030252	0.0045004
0.28	-0.027621	346.04	3.5685	0.0029703	-0.0029435	0.0048274
0.282	-0.027663	350.46	3.4632	0.0027638	-0.0028261	0.0050414
0.284	-0.027685	354.76	3.3579	0.0025572	-0.0027086	0.0052554
0.286	-0.027697	358.92	3.2487	0.0023507	-0.0025912	0.0054693
0.288	-0.027701	362.95	3.1354	0.0021441	-0.0024738	0.0056833
0.29	-0.027688	366.85	3.0221	0.0019376	-0.0023563	0.0058973
0.292	-0.027649	370.62	2.9054	0.0019077	-0.0021772	0.0057329
0.294	-0.027573	374.25	2.7887	0.0018779	-0.0019981	0.0055685
0.296	-0.027455	377.74	2.6724	0.001848	-0.001819	0.005404
0.298	-0.027293	381.1	2.5565	0.0018181	-0.0016399	0.0052396
0.3	-0.027097	384.33	2.4406	0.0017883	-0.0014607	0.0050752
0.302	-0.026877	387.42	2.3288	0.0019115	-0.0012966	0.0046972
0.304	-0.026648	390.38	2.217	0.0020347	-0.0011325	0.0043192
0.306	-0.026421	393.2	2.1083	0.0021579	-0.00096831	0.0039412
0.308	-0.026201	395.89	2.0026	0.0022811	-0.00080416	0.0035631
0.31	-0.025987	398.45	1.897	0.0024043	-0.00064002	0.0031851
0.312	-0.025769	400.88	1.7982	0.0026457	-0.00066687	0.0030597
0.314	-0.025536	403.19	1.6993	0.0028871	-0.00069371	0.0029344
0.316	-0.025271	405.37	1.6038	0.0031286	-0.00072056	0.002809
0.318	-0.024965	407.42	1.5116	0.00337	-0.00074741	0.0026836
0.32	-0.024614	409.36	1.4193	0.0036114	-0.00077426	0.0025582
0.322	-0.024223	411.17	1.3328	0.0039654	-0.001048	0.0028854
0.324	-0.023809	412.87	1.2464	0.0043194	-0.0013218	0.0032126
0.326	-0.023393	414.45	1.1624	0.0046734	-0.0015956	0.0035399
0.328	-0.023002	415.91	1.081	0.0050274	-0.0018693	0.0038671
0.33	-0.022656	417.27	0.99955	0.0053814	-0.0021431	0.0041943
0.332	-0.022371	418.52	0.92281	0.0057078	-0.0024454	0.0045746
0.334	-0.022151	419.66	0.84607	0.0060341	-0.0027478	0.0049549
0.336	-0.021985	420.7	0.77173	0.0063605	-0.0030502	0.0053352
0.338	-0.021854	421.65	0.6998	0.0066869	-0.0033526	0.0057155
0.34	-0.02173	422.49	0.62787	0.0070132	-0.0036549	0.0060958
0.342	-0.021585	423.24	0.5612	0.0069533	-0.0036703	0.0059368
0.344	-0.021395	423.9	0.49453	0.0068933	-0.0036856	0.0057778
0.346	-0.021145	424.47	0.43074	0.0068333	-0.0037009	0.0056188
0.348	-0.020833	424.96	0.36983	0.0067734	-0.0037163	0.0054598
0.35	-0.020473	425.37	0.30893	0.0067134	-0.0037316	0.0053008
0.352	-0.020086	425.7	0.25407	0.006006	-0.0033858	0.0045259
0.354	-0.0197	425.96	0.19922	0.0052986	-0.00304	0.0037511
0.356	-0.019346	426.15	0.14739	0.0045912	-0.0026942	0.0029762
0.358	-0.019046	426.28	0.098572	0.0038838	-0.0023484	0.0022014
0.36	-0.018814	426.34	0.049756	0.0031764	-0.0020025	0.0014265
0.362	-0.018651	426.35	0.0067048	0.0020713	-0.0015551	0.00058863
0.364	-0.018546	426.31	-0.036346	0.00096628	-0.0011076	-0.00024924
0.366	-0.018479	426.22	-0.076671	-0.00013877	-0.00066012	-0.0010871
0.368	-0.018426	426.09	-0.11427	-0.0012438	-0.00021265	-0.001925
0.37	-0.018365	425.92	-0.15187	-0.0023489	0.00023483	-0.0027629
0.372	-0.018276	425.72	-0.18416	-0.0032123	0.00046645	-0.0031083
0.374	-0.018153	425.5	-0.21646	-0.0040758	0.00069807	-0.0034537
0.376	-0.017996	425.25	-0.24604	-0.0049392	0.00092969	-0.0037991
0.378	-0.017815	424.99	-0.27292	-0.0058026	0.0011613	-0.0041446
0.38	-0.017624	424.71	-0.29979	-0.0066661	0.0013929	-0.00449
0.382	-0.017441	424.43	-0.32096	-0.0068708	0.0013559	-0.0043484
0.384	-0.017277	424.15	-0.34212	-0.0070754	0.0013189	-0.0042068
0.386	-0.017141	423.88	-0.36029	-0.0072801	0.0012819	-0.0040652
0.388	-0.017031	423.61	-0.37548	-0.0074848	0.0012449	-0.0039236
0.39	-0.016939	423.36	-0.39067	-0.0076894	0.0012078	-0.003782
0.392	-0.016853	423.13	-0.39993	-0.0073753	0.0011132	-0.0035688
0.394	-0.016757	422.93	-0.40918	-0.0070611	0.0010186	-0.0033557
0.396	-0.01664	422.75	-0.41571	-0.006747	0.00092406	-0.0031425
0.398	-0.016494	422.61	-0.41952	-0.0064328	0.00082946	-0.0029294
0.4	-0.016318	422.51	-0.42332	-0.0061186	0.00073487	-0.0027162
0.402	-0.01612	422.44	-0.42258	-0.0056758	0.00077047	-0.0027021
0.404	-0.015911	422.42	-0.42184	-0.0052329	0.00080607	-0.0026879
0.406	-0.015707	422.45	-0.41938	-0.0047901	0.00084167	-0.0026737
0.408	-0.01552	422.53	-0.41518	-0.0043473	0.00087727	-0.0026596
0.41	-0.015361	422.66	-0.41098	-0.0039044	0.00091287	-0.0026454
0.412	-0.015235	422.84	-0.40428	-0.0035329	0.001055	-0.0027241
0.414	-0.01514	423.08	-0.39757	-0.0031613	0.0011971	-0.0028027
0.416	-0.015068	423.37	-0.38989	-0.0027898	0.0013392	-0.0028814
0.418	-0.015008	423.72	-0.38122	-0.0024183	0.0014814	-0.00296
0.42	-0.014948	424.13	-0.37256	-0.0020467	0.0016235	-0.0030387
0.422	-0.014877	424.59	-0.36199	-0.0017302	0.0017591	-0.0029939
0.424	-0.014786	425.1	-0.35143	-0.0014137	0.0018947	-0.0029491
0.426	-0.014674	425.67	-0.33979	-0.0010972	0.0020303	-0.0029043
0.428	-0.014541	426.29	-0.32708	-0.00078065	0.002166	-0.0028595
0.43	-0.014392	426.96	-0.31436	-0.00046413	0.0023016	-0.0028147
0.432	-0.014232	427.68	-0.29927	-0.00023487	0.0024248	-0.0026426
0.434	-0.014068	428.44	-0.28418	-5.6067e-06	0.002548	-0.0024705
0.436	-0.013904	429.25	-0.26799	0.00022366	0.0026712	-0.0022984
0.438	-0.013746	430.09	-0.2507	0.00045292	0.0027943	-0.0021263
0.44	-0.013593	430.97	-0.2334	0.00068218	0.0029175	-0.0019542
0.442	-0.013449	431.87	-0.21473	0.0006575	0.0030803	-0.0018465
0.444	-0.013313	432.81	-0.19606	0.00063282	0.003243	-0.0017387
0.446	-0.013188	433.77	-0.1774	0.00060814	0.0034058	-0.001631
0.448	-0.013076	434.75	-0.15876	0.00058347	0.0035685	-0.0015232
0.45	-0.012979	435.75	-0.14012	0.00055879	0.0037313	-0.0014155
0.452	-0.012901	436.76	-0.12324	0.00022415	0.0038334	-0.00147
0.454	-0.01284	437.77	-0.10635	-0.00011049	0.0039355	-0.0015245
0.456	-0.012797	438.79	-0.091125	-0.00044513	0.0040376	-0.001579
0.458	-0.012766	439.81	-0.077554	-0.00077976	0.0041398	-0.0016335
0.46	-0.012741	440.83	-0.063983	-0.0011144	0.0042419	-0.0016881
0.462	-0.012714	441.85	-0.0547	-0.0014698	0.0040376	-0.0017274
0.464	-0.012676	442.85	-0.045417	-0.0018252	0.0038333	-0.0017668
0.466	-0.012622	443.84	-0.038373	-0.0021807	0.003629	-0.0018061
0.468	-0.012551	444.82	-0.033567	-0.0025361	0.0034247	-0.0018455
0.47	-0.012464	445.78	-0.028761	-0.0028915	0.0032204	-0.0018848
0.472	-0.01237	446.72	-0.027939	-0.0028278	0.0026244	-0.0016401
0.474	-0.012277	447.63	-0.027117	-0.0027641	0.0020283	-0.0013954
0.476	-0.012195	448.53	-0.027888	-0.0027004	0.0014322	-0.0011507
0.478	-0.012133	449.4	-0.030252	-0.0026367	0.00083607	-0.00090601
0.48	-0.012095	450.24	-0.032616	-0.002573	0.00023998	-0.00066131
0.482	-0.01208	451.06	-0.037549	-0.0020084	-0.00045397	-0.00013052
0.484	-0.012081	451.85	-0.042482	-0.0014439	-0.0011479	0.00040027
0.486	-0.012089	452.6	-0.048673	-0.0008793	-0.0018419	0.00093106
0.488	-0.01209	453.33	-0.056124	-0.00031474	-0.0025358	0.0014618
0.49	-0.012076	454.03	-0.063574	0.00024981	-0.0032298	0.0019926
0.492	-0.012039	454.7	-0.074172	0.00085806	-0.0035444	0.0024554
0.494	-0.011977	455.34	-0.084769	0.0014663	-0.003859	0.0029181
0.496	-0.011895	455.94	-0.097489	0.0020746	-0.0041737	0.0033809
0.498	-0.0118	456.52	-0.11233	0.0026828	-0.0044883	0.0038436
0.5	-0.011704	457.06	-0.12718	0.0032911	-0.0048029	0.0043064
0.502	-0.011614	457.57	-0.1474	0.0033986	-0.0045139	0.0043
0.504	-0.011539	458.05	-0.16762	0.0035061	-0.004225	0.0042936
0.506	-0.011477	458.5	-0.19086	0.0036137	-0.003936	0.0042872
0.508	-0.011424	458.91	-0.21712	0.0037212	-0.003647	0.0042809
0.51	-0.011371	459.29	-0.24339	0.0038287	-0.0033581	0.0042745
0.512	-0.01131	459.64	-0.27559	0.0033536	-0.0027088	0.0037288
0.514	-0.01123	459.95	-0.30779	0.0028785	-0.0020596	0.0031831
0.516	-0.011131	460.22	-0.34252	0.0024034	-0.0014103	0.0026374
0.518	-0.011016	460.45	-0.37977	0.0019283	-0.0007611	0.0020916
0.52	-0.010895	460.65	-0.41702	0.0014532	-0.00011186	0.0015459
0.522	-0.010786	460.8	-0.45797	0.00079408	0.00041232	0.00080359
0.524	-0.010704	460.91	-0.49892	0.00013496	0.00093649	6.1242e-05
0.526	-0.010665	460.98	-0.54107	-0.00052417	0.0014607	-0.0006811
0.528	-0.010674	460.99	-0.58441	-0.0011833	0.0019848	-0.0014234
0.53	-0.010726	460.96	-0.62775	-0.0018424	0.002509	-0.0021658
0.532	-0.010807	460.88	-0.6727	-0.0022333	0.0026008	-0.0026227
0.534	-0.010892	460.75	-0.71764	-0.0026241	0.0026926	-0.0030795
0.536	-0.010953	460.56	-0.76337	-0.003015	0.0027844	-0.0035364
0.538	-0.010963	460.31	-0.8099	-0.0034059	0.0028762	-0.0039933
0.54	-0.010903	460	-0.85642	-0.0037967	0.002968	-0.0044502
0.542	-0.010769	459.63	-0.90516	-0.0037663	0.0027001	-0.0043928
0.544	-0.01057	459.19	-0.95391	-0.0037359	0.0024322	-0.0043354
0.546	-0.010332	458.69	-1.0042	-0.0037055	0.0021643	-0.004278
0.548	-0.010092	458.11	-1.0561	-0.003675	0.0018964	-0.0042206
0.55	-0.0098907	457.47	-1.108	-0.0036446	0.0016285	-0.0041632
0.552	-0.0097631	456.75	-1.1636	-0.0033583	0.0013051	-0.0037812
0.554	-0.0097337	455.96	-1.2192	-0.003072	0.00098166	-0.0033993
0.556	-0.0098088	455.1	-1.2767	-0.0027857	0.00065822	-0.0030173
0.558	-0.0099753	454.16	-1.336	-0.0024993	0.00033479	-0.0026353
0.56	-0.010202	453.14	-1.3952	-0.002213	1.1357e-05	-0.0022534
0.562	-0.010447	452.05	-1.4571	-0.0019548	-0.00011597	-0.0019395
0.564	-0.010662	450.88	-1.519	-0.0016965	-0.00024331	-0.0016257
0.566	-0.010807	449.64	-1.5814	-0.0014383	-0.00037064	-0.0013119
0.568	-0.010854	448.32	-1.6441	-0.00118	-0.00049797	-0.00099807
0.57	-0.010794	446.92	-1.7069	-0.00092178	-0.0006253	-0.00068424
0.572	-0.010637	445.46	-1.7685	-0.00087298	-0.00051408	-0.0006591
0.574	-0.010413	443.92	-1.8302	-0.00082418	-0.00040286	-0.00063396
0.576	-0.010161	442.32	-1.8905	-0.00077538	-0.00029163	-0.00060881
0.578	-0.0099225	440.64	-1.9494	-0.00072658	-0.00018041	-0.00058367
0.58	-0.0097331	438.91	-2.0083	-0.00067778	-6.9188e-05	-0.00055853
0.582	-0.0096152	437.11	-2.0638	-0.00081308	0.00015741	-0.00071288
0.584	-0.0095737	435.26	-2.1193	-0.00094838	0.00038401	-0.00086723
0.586	-0.0095963	433.35	-2.1732	-0.0010837	0.00061061	-0.0010216
0.588	-0.0096569	431.39	-2.2256	-0.001219	0.00083721	-0.0011759
0.59	-0.0097225	429.39	-2.278	-0.0013543	0.0010638	-0.0013303
0.592	-0.0097607	427.34	-2.3286	-0.001529	0.0012591	-0.0014208
0.594	-0.0097473	425.25	-2.3793	-0.0017037	0.0014544	-0.0015113
0.596	-0.0096711	423.13	-2.4299	-0.0018784	0.0016497	-0.0016018
0.598	-0.0095362	420.97	-2.4806	-0.0020531	0.001845	-0.0016923
0.6	-0.0093605	418.79	-2.5313	-0.0022278	0.0020403	-0.0017828
0.602	-0.009171	416.58	-2.5838	-0.002359	0.0021351	-0.0017257
0.604	-0.0089974	414.34	-2.6363	-0.0024902	0.0022299	-0.0016686
0.606	-0.0088659	412.1	-2.6901	-0.0026215	0.0023248	-0.0016115
0.608	-0.0087935	409.83	-2.7455	-0.0027527	0.0024196	-0.0015544
0.61	-0.0087849	407.55	-2.8008	-0.0028839	0.0025144	-0.0014974
0.612	-0.0088328	405.27	-2.8591	-0.002998	0.0025248	-0.001419
0.614	-0.0089203	402.97	-2.9174	-0.003112	0.0025352	-0.0013407
0.616	-0.0090257	400.67	-2.9769	-0.0032261	0.0025455	-0.0012623
0.618	-0.0091278	398.37	-3.0374	-0.0033401	0.0025559	-0.0011839
0.62	-0.0092105	396.06	-3.098	-0.0034542	0.0025663	-0.0011056
0.622	-0.0092664	393.76	-3.1595	-0.0035776	0.002559	-0.0011574
0.624	-0.0092974	391.45	-3.2209	-0.0037009	0.0025516	-0.0012091
0.626	-0.0093128	389.14	-3.2821	-0.0038243	0.0025443	-0.0012609
0.628	-0.0093263	386.84	-3.3429	-0.0039477	0.002537	-0.0013127
0.63	-0.0093522	384.53	-3.4037	-0.0040711	0.0025296	-0.0013644
0.632	-0.0094005	382.23	-3.4625	-0.0041667	0.002583	-0.0015736
0.634	-0.0094753	379.92	-3.5213	-0.0042623	0.0026364	-0.0017828
0.636	-0.0095735	377.61	-3.5787	-0.0043579	0.0026898	-0.001992
0.638	-0.0096858	375.3	-3.6348	-0.0044535	0.0027432	-0.0022012
0.64	-0.0097993	372.98	-3.6909	-0.0045491	0.0027966	-0.0024104
