t	ekg	optical	pressure	accel_x	accel_y	accel_z
0.002	-0.0047676	438.36	-26.66	-0.0010113	-0.001336	-0.0026142
0.004	-0.0045782	435.45	-26.552	-0.0010616	-0.0015188	-0.0025463
0.006	-0.0043375	432.46	-26.443	-0.001112	-0.0017016	-0.0024784
0.008	-0.0039693	429.39	-26.335	-0.0011624	-0.0018845	-0.0024106
0.01	-0.0034763	426.25	-26.226	-0.0012127	-0.0020673	-0.0023427
0.012	-0.0029465	423.05	-26.107	-0.0012631	-0.0022501	-0.0022749
0.014	-0.0025305	419.78	-25.987	-0.0013135	-0.002433	-0.002207
0.016	-0.0023987	416.45	-25.869	-0.0013638	-0.0026158	-0.0021392
0.018	-0.0026901	413.06	-25.752	-0.0014142	-0.0027986	-0.0020713
0.02	-0.0034589	409.61	-25.636	-0.0014645	-0.0029815	-0.0020035
0.022	-0.0046405	406.12	-25.538	-0.00097271	-0.0031608	-0.0017968
0.024	-0.0060481	402.58	-25.44	-0.00048087	-0.0033401	-0.0015902
0.026	-0.0073958	398.99	-25.359	1.0963e-05	-0.0035194	-0.0013835
0.028	-0.0083513	395.37	-25.293	0.0005028	-0.0036988	-0.0011769
0.03	-0.0086061	391.7	-25.227	0.00099464	-0.0038781	-0.00097025
0.032	-0.0079456	388	-25.198	0.0018211	-0.0038202	-0.00062966
0.034	-0.0063042	384.27	-25.17	0.0026475	-0.0037624	-0.00028908
0.036	-0.0037912	380.51	-25.156	0.003474	-0.0037045	5.1498e-05
0.038	-0.00067989	376.72	-25.159	0.0043004	-0.0036466	0.00039208
0.04	0.0026361	372.91	-25.161	0.0051268	-0.0035887	0.00073266
0.042	0.0057159	369.09	-25.178	0.0056905	-0.0032537	0.0010346
0.044	0.0081551	365.24	-25.195	0.0062542	-0.0029186	0.0013366
0.046	0.0096613	361.39	-25.209	0.0068178	-0.0025835	0.0016386
0.048	0.010111	357.53	-25.22	0.0073815	-0.0022485	0.0019406
0.05	0.0095682	353.66	-25.231	0.0079452	-0.0019134	0.0022426
0.052	0.0082709	349.78	-25.215	0.0076987	-0.0016271	0.0022797
0.054	0.0065759	345.91	-25.199	0.0074522	-0.0013408	0.0023169
0.056	0.0048916	342.04	-25.163	0.0072057	-0.0010545	0.0023541
0.058	0.0036036	338.18	-25.107	0.0069593	-0.00076817	0.0023913
0.06	0.0030074	334.33	-25.051	0.0067128	-0.00048186	0.0024285
0.062	0.0032643	330.49	-24.955	0.0056866	-0.00062417	0.0021668
0.064	0.0043932	326.66	-24.858	0.0046605	-0.00076649	0.0019052
0.066	0.0062893	322.85	-24.747	0.0036343	-0.0009088	0.0016435
0.068	0.0087615	319.05	-24.622	0.0026082	-0.0010511	0.0013819
0.07	0.011582	315.28	-24.496	0.001582	-0.0011934	0.0011202
0.072	0.014533	311.53	-24.36	0.00039961	-0.0017366	0.00078524
0.074	0.01744	307.8	-24.223	-0.00078277	-0.0022798	0.00045028
0.076	0.020184	304.1	-24.091	-0.0019651	-0.002823	0.00011532
0.078	0.022695	300.42	-23.964	-0.0031475	-0.0033662	-0.00021964
0.08	0.024934	296.77	-23.837	-0.0043299	-0.0039094	-0.00055459
0.082	0.026874	293.15	-23.731	-0.0050481	-0.0044291	-0.00070764
0.084	0.02848	289.55	-23.626	-0.0057664	-0.0049488	-0.00086069
0.086	0.029711	285.97	-23.533	-0.0064846	-0.0054686	-0.0010137
0.088	0.030532	282.43	-23.452	-0.0072028	-0.0059883	-0.0011668
0.09	0.030943	278.91	-23.371	-0.0079211	-0.006508	-0.0013198
0.092	0.031003	275.41	-23.305	-0.0080594	-0.0066794	-0.001207
0.094	0.030856	271.94	-23.24	-0.0081977	-0.0068509	-0.0010941
0.096	0.030728	268.49	-23.174	-0.008336	-0.0070224	-0.00098118
0.098	0.030905	265.06	-23.107	-0.0084743	-0.0071938	-0.00086829
0.1	0.031691	261.65	-23.041	-0.0086127	-0.0073653	-0.0007554
0.102	0.033339	258.26	-22.957	-0.0084956	-0.0073274	-0.00036935
0.104	0.03599	254.88	-22.872	-0.0083785	-0.0072894	1.67e-05
0.106	0.039621	251.52	-22.773	-0.0082613	-0.0072515	0.00040275
0.108	0.044021	248.17	-22.659	-0.0081442	-0.0072136	0.0007888
0.11	0.048812	244.83	-22.545	-0.0080271	-0.0071757	0.0011749
0.112	0.053496	241.5	-22.4	-0.0080845	-0.0073218	0.0018973
0.114	0.057546	238.18	-22.254	-0.0081419	-0.0074678	0.0026197
0.116	0.060501	234.87	-22.097	-0.0081993	-0.0076139	0.0033422
0.118	0.062055	231.56	-21.928	-0.0082567	-0.00776	0.0040646
0.12	0.062119	228.25	-21.759	-0.0083141	-0.0079061	0.0047871
0.122	0.060842	224.95	-21.582	-0.0087689	-0.0083358	0.0058267
0.124	0.058572	221.65	-21.405	-0.0092237	-0.0087655	0.0068664
0.126	0.055782	218.35	-21.231	-0.0096784	-0.0091952	0.007906
0.128	0.052968	215.06	-21.061	-0.010133	-0.0096249	0.0089457
0.13	0.05054	211.77	-20.891	-0.010588	-0.010055	0.0099854
0.132	0.048732	208.48	-20.741	-0.011186	-0.010352	0.011045
0.134	0.047554	205.19	-20.591	-0.011783	-0.010649	0.012105
0.136	0.046796	201.91	-20.453	-0.012381	-0.010946	0.013165
0.138	0.046088	198.63	-20.327	-0.012979	-0.011244	0.014224
0.14	0.044991	195.36	-20.202	-0.013577	-0.011541	0.015284
0.142	0.043108	192.1	-20.1	-0.013655	-0.011233	0.015886
0.144	0.040186	188.85	-19.997	-0.013733	-0.010925	0.016488
0.146	0.036181	185.61	-19.904	-0.013811	-0.010617	0.01709
0.148	0.031277	182.38	-19.819	-0.013889	-0.010309	0.017692
0.15	0.025849	179.17	-19.734	-0.013968	-0.01	0.018294
0.152	0.020377	175.98	-19.66	-0.01312	-0.0091905	0.018084
0.154	0.015345	172.81	-19.587	-0.012272	-0.0083805	0.017875
0.156	0.011128	169.66	-19.518	-0.011424	-0.0075705	0.017665
0.158	0.0079181	166.54	-19.453	-0.010576	-0.0067606	0.017455
0.16	0.0056832	163.44	-19.389	-0.009728	-0.0059506	0.017246
0.162	0.0041905	160.37	-19.335	-0.0084343	-0.0052712	0.01623
0.164	0.0030679	157.33	-19.281	-0.0071406	-0.0045918	0.015214
0.166	0.001901	154.32	-19.235	-0.005847	-0.0039124	0.014198
0.168	0.00033652	151.35	-19.195	-0.0045533	-0.003233	0.013182
0.17	-0.0018351	148.41	-19.156	-0.0032596	-0.0025536	0.012166
0.172	-0.0046359	145.5	-19.134	-0.0025438	-0.0024248	0.010768
0.174	-0.0079045	142.63	-19.113	-0.001828	-0.0022961	0.0093709
0.176	-0.011348	139.8	-19.1	-0.0011122	-0.0021674	0.0079734
0.178	-0.014622	137	-19.095	-0.00039645	-0.0020386	0.006576
0.18	-0.017427	134.23	-19.091	0.00031933	-0.0019099	0.0051785
0.182	-0.019579	131.5	-19.096	-5.5971e-06	-0.0020728	0.0040811
0.184	-0.021056	128.8	-19.102	-0.00033052	-0.0022357	0.0029837
0.186	-0.021989	126.13	-19.107	-0.00065545	-0.0023985	0.0018863
0.188	-0.022619	123.49	-19.111	-0.00098037	-0.0025614	0.00078887
0.19	-0.023224	120.88	-19.114	-0.0013053	-0.0027243	-0.00030854
0.192	-0.024031	118.3	-19.103	-0.0020336	-0.0026731	-0.00056386
0.194	-0.025156	115.73	-19.092	-0.0027619	-0.0026219	-0.00081918
0.196	-0.026577	113.19	-19.068	-0.0034902	-0.0025707	-0.0010745
0.198	-0.028152	110.67	-19.031	-0.0042185	-0.0025195	-0.0013298
0.2	-0.029674	108.16	-18.995	-0.0049468	-0.0024683	-0.0015851
0.202	-0.030957	105.66	-18.928	-0.0050791	-0.0021367	-0.00098369
0.204	-0.03191	103.17	-18.862	-0.0052114	-0.0018052	-0.00038224
0.206	-0.032596	100.69	-18.782	-0.0053436	-0.0014736	0.00021921
0.208	-0.033236	98.213	-18.69	-0.0054759	-0.001142	0.00082066
0.21	-0.034152	95.736	-18.597	-0.0056082	-0.00081049	0.0014221
0.212	-0.035678	93.259	-18.488	-0.0049021	-0.00054895	0.0023237
0.214	-0.038032	90.778	-18.379	-0.0041961	-0.0002874	0.0032252
0.216	-0.041212	88.293	-18.268	-0.00349	-2.5863e-05	0.0041268
0.218	-0.044921	85.8	-18.154	-0.002784	0.00023568	0.0050284
0.22	-0.048572	83.3	-18.04	-0.002078	0.00049722	0.0059299
0.222	-0.051376	80.79	-17.932	-0.0011996	0.00050696	0.0063729
0.224	-0.052504	78.27	-17.823	-0.00032127	0.00051671	0.0068158
0.226	-0.051285	75.741	-17.719	0.00055708	0.00052646	0.0072587
0.228	-0.047422	73.202	-17.62	0.0014354	0.0005362	0.0077017
0.23	-0.041139	70.653	-17.521	0.0023138	0.00054595	0.0081446
0.232	-0.033255	68.096	-17.432	0.002673	0.00049869	0.0077098
0.234	-0.025117	65.531	-17.342	0.0030322	0.00045143	0.0072749
0.236	-0.018425	62.96	-17.255	0.0033914	0.00040417	0.0068401
0.238	-0.014951	60.386	-17.171	0.0037506	0.00035691	0.0064052
0.24	-0.016209	57.809	-17.087	0.0041098	0.00030965	0.0059704
0.242	-0.023146	55.233	-17.008	0.0039605	0.00037145	0.0049007
0.244	-0.035903	52.659	-16.928	0.0038112	0.00043324	0.0038311
0.246	-0.053717	50.092	-16.853	0.0036618	0.00049503	0.0027615
0.248	-0.074985	47.532	-16.781	0.0035125	0.00055683	0.0016918
0.25	-0.097477	44.985	-16.709	0.0033631	0.00061862	0.00062221
0.252	-0.11868	42.451	-16.656	0.0032029	0.00064477	-0.00039417
0.254	-0.1362	39.935	-16.603	0.0030427	0.00067092	-0.0014106
0.256	-0.14816	37.438	-16.566	0.0028825	0.00069707	-0.0024269
0.258	-0.15348	34.965	-16.547	0.0027223	0.00072322	-0.0034433
0.26	-0.15203	32.516	-16.528	0.0025621	0.00074937	-0.0044597
0.262	-0.14464	30.096	-16.557	0.0027238	0.00055513	-0.0048992
0.264	-0.1329	27.704	-16.586	0.0028856	0.00036089	-0.0053387
0.266	-0.11887	25.344	-16.645	0.0030473	0.00016665	-0.0057781
0.268	-0.10467	23.016	-16.732	0.0032091	-2.7596e-05	-0.0062176
0.27	-0.092147	20.722	-16.819	0.0033708	-0.00022184	-0.0066571
0.272	-0.082594	18.462	-16.961	0.0037639	-0.00054511	-0.0065208
0.274	-0.07658	16.236	-17.103	0.004157	-0.00086838	-0.0063845
0.276	-0.073951	14.044	-17.265	0.0045501	-0.0011916	-0.0062482
0.278	-0.073957	11.885	-17.447	0.0049432	-0.0015149	-0.0061118
0.28	-0.075492	9.7592	-17.628	0.0053362	-0.0018382	-0.0059755
0.282	-0.07737	7.6627	-17.825	0.0056571	-0.002048	-0.005563
0.284	-0.078582	5.5959	-18.021	0.005978	-0.0022578	-0.0051505
0.286	-0.078491	3.5538	-18.211	0.0062988	-0.0024676	-0.004738
0.288	-0.07692	1.5366	-18.394	0.0066197	-0.0026775	-0.0043255
0.29	-0.074125	-0.46206	-18.578	0.0069406	-0.0028873	-0.003913
0.292	-0.070675	-2.442	-18.728	0.0069671	-0.0028731	-0.0034595
0.294	-0.067274	-4.4107	-18.879	0.0069937	-0.0028589	-0.003006
0.296	-0.064573	-6.368	-19.009	0.0070202	-0.0028447	-0.0025524
0.298	-0.063003	-8.322	-19.118	0.0070468	-0.0028305	-0.0020989
0.3	-0.062697	-10.273	-19.228	0.0070733	-0.0028163	-0.0016454
0.302	-0.063473	-12.228	-19.305	0.0068461	-0.0026184	-0.0012847
0.304	-0.064904	-14.189	-19.382	0.0066189	-0.0024204	-0.00092412
0.306	-0.06644	-16.163	-19.454	0.0063917	-0.0022224	-0.00056349
0.308	-0.067543	-18.151	-19.52	0.0061645	-0.0020245	-0.00020287
0.31	-0.067814	-20.159	-19.586	0.0059372	-0.0018265	0.00015776
0.312	-0.067067	-22.188	-19.668	0.005743	-0.0014941	0.00032
0.314	-0.065352	-24.244	-19.749	0.0055487	-0.0011616	0.00048225
0.316	-0.062907	-26.329	-19.848	0.0053544	-0.0008292	0.00064449
0.318	-0.060084	-28.446	-19.966	0.0051602	-0.00049676	0.00080674
0.32	-0.057244	-30.596	-20.084	0.0049659	-0.00016433	0.00096898
0.322	-0.054673	-32.784	-20.246	0.0050342	0.000276	0.00095566
0.324	-0.052524	-35.008	-20.409	0.0051025	0.00071633	0.00094234
0.326	-0.050813	-37.272	-20.589	0.0051709	0.0011567	0.00092902
0.328	-0.04944	-39.575	-20.788	0.0052392	0.001597	0.00091569
0.33	-0.048259	-41.917	-20.986	0.0053075	0.0020373	0.00090237
0.332	-0.047138	-44.3	-21.199	0.0054786	0.0025179	0.00088639
0.334	-0.046021	-46.721	-21.412	0.0056497	0.0029985	0.00087042
0.336	-0.044942	-49.181	-21.617	0.0058209	0.0034791	0.00085444
0.338	-0.044013	-51.677	-21.816	0.005992	0.0039597	0.00083846
0.34	-0.043378	-54.209	-22.014	0.0061631	0.0044403	0.00082249
0.342	-0.043145	-56.774	-22.175	0.0060592	0.0048224	0.00090249
0.344	-0.043323	-59.372	-22.335	0.0059553	0.0052045	0.0009825
0.346	-0.04379	-61.997	-22.471	0.0058513	0.0055865	0.0010625
0.348	-0.044294	-64.651	-22.583	0.0057474	0.0059686	0.0011425
0.35	-0.044493	-67.328	-22.696	0.0056435	0.0063507	0.0012225
0.352	-0.044037	-70.027	-22.766	0.005265	0.0064757	0.0013262
0.354	-0.042664	-72.746	-22.836	0.0048866	0.0066007	0.0014299
0.356	-0.040275	-75.482	-22.896	0.0045082	0.0067258	0.0015336
0.358	-0.036989	-78.232	-22.945	0.0041297	0.0068508	0.0016373
0.36	-0.03314	-80.995	-22.994	0.0037513	0.0069758	0.001741
0.362	-0.029226	-83.769	-23.049	0.0035995	0.0068065	0.0018197
0.364	-0.025805	-86.553	-23.104	0.0034477	0.0066373	0.0018984
0.366	-0.023374	-89.343	-23.174	0.0032959	0.006468	0.0019772
0.368	-0.022256	-92.141	-23.258	0.003144	0.0062987	0.0020559
0.37	-0.022514	-94.945	-23.342	0.0029922	0.0061294	0.0021346
0.372	-0.023926	-97.754	-23.465	0.0033632	0.0058525	0.0022296
0.374	-0.026018	-100.57	-23.587	0.0037342	0.0055755	0.0023245
0.376	-0.028161	-103.39	-23.725	0.0041052	0.0052985	0.0024194
0.378	-0.029702	-106.22	-23.877	0.0044762	0.0050215	0.0025144
0.38	-0.030102	-109.05	-24.03	0.0048472	0.0047446	0.0026093
0.382	-0.029049	-111.89	-24.191	0.0053215	0.0046067	0.002664
0.384	-0.026524	-114.74	-24.351	0.0057958	0.0044688	0.0027187
0.386	-0.022795	-117.61	-24.5	0.0062701	0.0043308	0.0027733
0.388	-0.018353	-120.48	-24.638	0.0067444	0.0041929	0.002828
0.39	-0.013795	-123.37	-24.777	0.0072187	0.004055	0.0028827
0.392	-0.0096857	-126.28	-24.866	0.0072132	0.0040489	0.0027426
0.394	-0.0064336	-129.2	-24.955	0.0072076	0.0040428	0.0026025
0.396	-0.0042018	-132.14	-25.011	0.0072021	0.0040367	0.0024624
0.398	-0.0028841	-135.11	-25.035	0.0071965	0.0040306	0.0023223
0.4	-0.0021435	-138.09	-25.059	0.007191	0.0040245	0.0021822
0.402	-0.0015019	-141.09	-25.018	0.0067664	0.0038946	0.0018378
0.404	-0.00046236	-144.12	-24.976	0.0063419	0.0037646	0.0014934
0.406	0.001367	-147.17	-24.906	0.0059174	0.0036347	0.001149
0.408	0.0041804	-150.24	-24.809	0.0054928	0.0035047	0.00080458
0.41	0.0079344	-153.32	-24.712	0.0050683	0.0033747	0.00046017
0.412	0.012366	-156.42	-24.576	0.0047688	0.0030161	5.7116e-05
0.414	0.017065	-159.54	-24.44	0.0044693	0.0026575	-0.00034594
0.416	0.021579	-162.66	-24.291	0.0041699	0.0022989	-0.000749
0.418	0.025528	-165.79	-24.127	0.0038704	0.0019403	-0.0011521
0.42	0.028698	-168.91	-23.964	0.0035709	0.0015817	-0.0015551
0.422	0.031087	-172.02	-23.776	0.00362	0.0012786	-0.0019635
0.424	0.032899	-175.12	-23.588	0.003669	0.00097552	-0.0023719
0.426	0.034486	-178.19	-23.382	0.0037181	0.00067246	-0.0027803
0.428	0.03625	-181.23	-23.16	0.0037671	0.0003694	-0.0031888
0.43	0.038541	-184.22	-22.937	0.0038162	6.6336e-05	-0.0035972
0.432	0.041565	-187.15	-22.663	0.0038875	0.00019636	-0.0040687
0.434	0.045336	-190.01	-22.389	0.0039588	0.00032638	-0.0045403
0.436	0.049675	-192.8	-22.081	0.0040302	0.00045641	-0.0050119
0.438	0.054261	-195.48	-21.739	0.0041015	0.00058643	-0.0054835
0.44	0.058722	-198.06	-21.397	0.0041729	0.00071645	-0.0059551
0.442	0.062735	-200.51	-20.978	0.0039074	0.0012813	-0.0064281
0.444	0.066112	-202.83	-20.559	0.0036419	0.0018462	-0.0069011
0.446	0.068856	-204.98	-20.104	0.0033764	0.002411	-0.0073742
0.448	0.071166	-206.98	-19.612	0.003111	0.0029759	-0.0078472
0.45	0.073383	-208.78	-19.121	0.0028455	0.0035407	-0.0083202
0.452	0.075909	-210.39	-18.574	0.0022595	0.0041111	-0.0086121
0.454	0.079101	-211.78	-18.027	0.0016736	0.0046815	-0.008904
0.456	0.083181	-212.95	-17.466	0.0010876	0.0052518	-0.0091959
0.458	0.088171	-213.86	-16.89	0.00050165	0.0058222	-0.0094878
0.46	0.093884	-214.52	-16.313	-8.4302e-05	0.0063926	-0.0097797
0.462	0.099959	-214.91	-15.734	-0.0007209	0.0065325	-0.0098528
0.464	0.10594	-215.02	-15.154	-0.0013575	0.0066725	-0.009926
0.466	0.1114	-214.83	-14.582	-0.0019941	0.0068124	-0.0099992
0.468	0.11599	-214.34	-14.019	-0.0026307	0.0069524	-0.010072
0.47	0.11958	-213.54	-13.456	-0.0032673	0.0070923	-0.010145
0.472	0.12222	-212.41	-12.92	-0.0037245	0.006763	-0.010168
0.474	0.12416	-210.96	-12.385	-0.0041817	0.0064337	-0.010191
0.476	0.12576	-209.18	-11.864	-0.0046388	0.0061044	-0.010213
0.478	0.12741	-207.05	-11.358	-0.005096	0.0057751	-0.010236
0.48	0.12941	-204.59	-10.852	-0.0055532	0.0054458	-0.010259
0.482	0.13195	-201.79	-10.374	-0.0057669	0.0049614	-0.010359
0.484	0.135	-198.65	-9.8965	-0.0059807	0.0044771	-0.010459
0.486	0.13839	-195.18	-9.4337	-0.0061944	0.0039927	-0.010559
0.488	0.14182	-191.37	-8.9854	-0.0064081	0.0035084	-0.010659
0.49	0.14496	-187.24	-8.5372	-0.0066218	0.003024	-0.010759
0.492	0.14753	-182.78	-8.1245	-0.0066702	0.0027023	-0.010878
0.494	0.14939	-178.01	-7.7118	-0.0067186	0.0023806	-0.010996
0.496	0.15053	-172.93	-7.3225	-0.006767	0.0020589	-0.011114
0.498	0.1511	-167.56	-6.9566	-0.0068153	0.0017372	-0.011232
0.5	0.15137	-161.91	-6.5907	-0.0068637	0.0014155	-0.01135
0.502	0.15162	-156	-6.284	-0.0068579	0.0013441	-0.011344
0.504	0.15207	-149.82	-5.9772	-0.0068521	0.0012728	-0.011338
0.506	0.15284	-143.41	-5.7038	-0.0068463	0.0012015	-0.011332
0.508	0.15389	-136.77	-5.4638	-0.0068405	0.0011302	-0.011326
0.51	0.15505	-129.92	-5.2238	-0.0068347	0.0010588	-0.011321
0.512	0.15605	-122.88	-5.0488	-0.0067761	0.0011249	-0.01109
0.514	0.15662	-115.67	-4.8739	-0.0067175	0.0011911	-0.010858
0.516	0.15653	-108.29	-4.7256	-0.006659	0.0012572	-0.010627
0.518	0.15567	-100.79	-4.604	-0.0066004	0.0013233	-0.010396
0.52	0.1541	-93.149	-4.4824	-0.0065418	0.0013894	-0.010165
0.522	0.152	-85.416	-4.3966	-0.0063021	0.0014401	-0.0097261
0.524	0.14964	-77.588	-4.3107	-0.0060624	0.0014907	-0.0092869
0.526	0.14731	-69.7	-4.2344	-0.0058227	0.0015414	-0.0088477
0.528	0.14521	-61.751	-4.1676	-0.005583	0.001592	-0.0084084
0.53	0.14344	-53.776	-4.1008	-0.0053434	0.0016427	-0.0079692
0.532	0.14191	-45.773	-4.0446	-0.0048508	0.0016324	-0.0075394
0.534	0.1404	-37.774	-3.9885	-0.0043583	0.0016221	-0.0071095
0.536	0.13859	-29.779	-3.9394	-0.0038658	0.0016118	-0.0066797
0.538	0.13616	-21.817	-3.8975	-0.0033733	0.0016016	-0.0062498
0.54	0.13284	-13.888	-3.8555	-0.0028808	0.0015913	-0.00582
0.542	0.12855	-6.0162	-3.8419	-0.002346	0.0015984	-0.0056781
0.544	0.12336	1.7973	-3.8282	-0.0018112	0.0016055	-0.0055362
0.546	0.11753	9.5308	-3.8377	-0.0012765	0.0016126	-0.0053943
0.548	0.11144	17.184	-3.8704	-0.0007417	0.0016197	-0.0052524
0.55	0.10551	24.739	-3.903	-0.00020693	0.0016269	-0.0051105
0.552	0.10009	32.195	-3.995	-8.4409e-05	0.0017123	-0.005222
0.554	0.095396	39.537	-4.087	3.8115e-05	0.0017977	-0.0053335
0.556	0.091439	46.765	-4.209	0.00016064	0.0018832	-0.005445
0.558	0.088058	53.867	-4.361	0.00028316	0.0019686	-0.0055565
0.56	0.084944	60.844	-4.5129	0.00040569	0.0020541	-0.005668
0.562	0.081738	67.685	-4.7104	-0.00013137	0.002133	-0.0056432
0.564	0.078123	74.392	-4.9079	-0.00066844	0.0022119	-0.0056184
0.566	0.073912	80.957	-5.1155	-0.0012055	0.0022908	-0.0055936
0.568	0.0691	87.381	-5.3332	-0.0017426	0.0023697	-0.0055688
0.57	0.063867	93.661	-5.5508	-0.0022796	0.0024486	-0.005544
0.572	0.05853	99.795	-5.761	-0.0030392	0.002355	-0.005146
0.574	0.053458	105.78	-5.9711	-0.0037988	0.0022614	-0.0047479
0.576	0.04897	111.62	-6.1677	-0.0045583	0.0021678	-0.0043498
0.578	0.045239	117.32	-6.3508	-0.0053179	0.0020741	-0.0039517
0.58	0.042237	122.86	-6.5338	-0.0060775	0.0019805	-0.0035536
0.582	0.039732	128.26	-6.6852	-0.006209	0.0016738	-0.0030249
0.584	0.037335	133.52	-6.8366	-0.0063404	0.0013671	-0.0024961
0.586	0.034599	138.62	-6.9778	-0.0064719	0.0010603	-0.0019674
0.588	0.031139	143.59	-7.1089	-0.0066034	0.00075359	-0.0014386
0.59	0.026741	148.41	-7.2399	-0.0067348	0.00044686	-0.00090983
0.592	0.021439	153.09	-7.3716	-0.0059877	0.00013166	-0.00059408
0.594	0.015532	157.63	-7.5032	-0.0052406	-0.00018354	-0.00027832
0.596	0.0095377	162.02	-7.6451	-0.0044934	-0.00049874	3.7427e-05
0.598	0.004089	166.29	-7.7972	-0.0037463	-0.00081394	0.00035318
0.6	-0.0002057	170.41	-7.9492	-0.0029992	-0.0011291	0.00066893
0.602	-0.0029042	174.4	-8.1299	-0.0021716	-0.0011462	0.00077993
0.604	-0.0038384	178.25	-8.3106	-0.001344	-0.0011632	0.00089093
0.606	-0.0031646	181.97	-8.5007	-0.00051638	-0.0011802	0.0010019
0.608	-0.0013453	185.56	-8.7002	0.00031122	-0.0011972	0.0011129
0.61	0.00093892	189.02	-8.8997	0.0011388	-0.0012142	0.0012239
0.612	0.0029345	192.34	-9.0915	0.0011535	-0.00085494	0.0013258
0.614	0.0039764	195.54	-9.2833	0.0011682	-0.00049567	0.0014276
0.616	0.0036246	198.61	-9.4539	0.0011829	-0.00013641	0.0015294
0.618	0.0017578	201.55	-9.6032	0.0011976	0.00022286	0.0016313
0.62	-0.0014028	204.36	-9.7525	0.0012123	0.00058213	0.0017331
0.622	-0.0053526	207.05	-9.8285	0.00054496	0.00099917	0.001843
0.624	-0.009422	209.62	-9.9044	-0.00012235	0.0014162	0.0019529
0.626	-0.012931	212.06	-9.9358	-0.00078966	0.0018332	0.0020629
0.628	-0.015344	214.37	-9.9226	-0.001457	0.0022503	0.0021728
0.63	-0.01639	216.57	-9.9094	-0.0021243	0.0026673	0.0022827
0.632	-0.016118	218.64	-9.8124	-0.0026365	0.0027064	0.0023108
0.634	-0.014876	220.59	-9.7154	-0.0031486	0.0027455	0.0023388
0.636	-0.013219	222.42	-9.5887	-0.0036608	0.0027846	0.0023669
0.638	-0.011782	224.13	-9.4325	-0.004173	0.0028237	0.0023949
0.64	-0.011118	225.72	-9.2763	-0.0046851	0.0028628	0.0024229
0.642	-0.011576	227.19	-9.0963	-0.0046887	0.0024653	0.0023993
0.644	-0.01322	228.55	-8.9163	-0.0046923	0.0020679	0.0023756
