t	ekg	optical	pressure	accel_x	accel_y	accel_z
0.002	0.098204	102.97	120.95	0.022995	-0.036017	-0.016058
0.004	0.097463	99.739	124.14	0.024	-0.035312	-0.015209
0.006	0.095808	96.506	127.34	0.025006	-0.034607	-0.01436
0.008	0.09397	93.323	130.69	0.026011	-0.033902	-0.013511
0.01	0.092672	90.191	134.03	0.027017	-0.033196	-0.012662
0.012	0.092496	87.131	137.42	0.028022	-0.032491	-0.011813
0.014	0.093792	84.142	140.83	0.029027	-0.031786	-0.010964
0.016	0.096621	81.246	144.25	0.030033	-0.03108	-0.010115
0.018	0.10077	78.442	147.7	0.030583	-0.03017	-0.0076956
0.02	0.10582	75.75	151.15	0.031133	-0.029259	-0.0052759
0.022	0.11123	73.169	154.62	0.031684	-0.028348	-0.0028561
0.024	0.11644	70.719	158.12	0.032234	-0.027438	-0.00043637
0.026	0.12096	68.399	161.62	0.032785	-0.026527	0.0019834
0.028	0.12447	66.224	165.22	0.032716	-0.025303	0.0040976
0.03	0.12681	64.194	168.82	0.032647	-0.024078	0.0062119
0.032	0.12802	62.322	172.51	0.032578	-0.022854	0.0083262
0.034	0.1283	60.609	176.27	0.03251	-0.02163	0.01044
0.036	0.12793	59.063	180.03	0.032441	-0.020405	0.012555
0.038	0.12727	57.683	184	0.032158	-0.019046	0.013136
0.04	0.12667	56.477	187.98	0.031874	-0.017686	0.013718
0.042	0.12644	55.443	192.06	0.031591	-0.016327	0.014299
0.044	0.12678	54.584	196.25	0.031308	-0.014967	0.014881
0.046	0.12782	53.899	200.44	0.031024	-0.013607	0.015462
0.048	0.12954	53.387	204.82	0.030828	-0.012398	0.015139
0.05	0.13184	53.046	209.19	0.030632	-0.011189	0.014816
0.052	0.13451	52.873	213.62	0.030436	-0.0099797	0.014493
0.054	0.13726	52.867	218.1	0.03024	-0.0087705	0.014169
0.056	0.13978	53.018	222.58	0.030044	-0.0075613	0.013846
0.058	0.14177	53.327	227.06	0.02954	-0.0064392	0.01392
0.06	0.14297	53.782	231.55	0.029037	-0.0053172	0.013995
0.062	0.14325	54.384	235.99	0.028533	-0.0041951	0.014069
0.064	0.14257	55.117	240.39	0.02803	-0.0030731	0.014144
0.066	0.14106	55.983	244.79	0.027526	-0.001951	0.014218
0.068	0.139	56.965	249.03	0.026045	-0.00066782	0.014776
0.07	0.13672	58.064	253.27	0.024564	0.00061537	0.015335
0.072	0.13462	59.263	257.4	0.023082	0.0018986	0.015893
0.074	0.13302	60.561	261.42	0.021601	0.0031818	0.016452
0.076	0.13216	61.942	265.45	0.02012	0.004465	0.01701
0.078	0.13208	63.405	269.23	0.01766	0.0057538	0.01683
0.08	0.13265	64.935	273.02	0.0152	0.0070426	0.01665
0.082	0.13355	66.53	276.67	0.01274	0.0083314	0.01647
0.084	0.13436	68.174	280.18	0.01028	0.0096202	0.01629
0.086	0.13461	69.867	283.7	0.00782	0.010909	0.01611
0.088	0.13391	71.595	286.92	0.0053342	0.011742	0.014451
0.09	0.13201	73.357	290.14	0.0028483	0.012575	0.012791
0.092	0.12886	75.14	293.19	0.0003624	0.013408	0.011131
0.094	0.12462	76.943	296.06	-0.0021235	0.014241	0.009471
0.096	0.11967	78.755	298.94	-0.0046094	0.015074	0.0078112
0.098	0.11443	80.575	301.42	-0.0058154	0.015415	0.0058087
0.1	0.10936	82.394	303.91	-0.0070215	0.015757	0.0038063
0.102	0.10479	84.212	306.19	-0.0082276	0.016098	0.0018038
0.104	0.10089	86.02	308.27	-0.0094337	0.016439	-0.00019863
0.106	0.097567	87.818	310.35	-0.01064	0.016781	-0.0022011
0.108	0.094566	89.6	312.04	-0.0098217	0.01712	-0.0025702
0.11	0.09149	91.365	313.74	-0.0090036	0.01746	-0.0029394
0.112	0.087924	93.109	315.29	-0.0081855	0.017799	-0.0033086
0.114	0.083555	94.832	316.69	-0.0073674	0.018139	-0.0036777
0.116	0.078271	96.529	318.09	-0.0065492	0.018479	-0.0040469
0.118	0.072209	98.202	319.32	-0.0043231	0.019103	-0.0021817
0.12	0.065751	99.847	320.56	-0.002097	0.019727	-0.00031643
0.122	0.059448	101.46	321.79	0.00012909	0.02035	0.0015488
0.124	0.053909	103.05	323.01	0.0023552	0.020974	0.003414
0.126	0.049656	104.61	324.23	0.0045813	0.021598	0.0052793
0.128	0.04699	106.13	325.56	0.0062753	0.022126	0.0082892
0.13	0.04591	107.62	326.9	0.0079694	0.022653	0.011299
0.132	0.046093	109.08	328.31	0.0096634	0.023181	0.014309
0.134	0.046946	110.51	329.8	0.011357	0.023708	0.017319
0.136	0.047725	111.9	331.29	0.013051	0.024235	0.020329
0.138	0.047688	113.26	332.9	0.012507	0.024042	0.023032
0.14	0.046266	114.57	334.5	0.011962	0.023849	0.025735
0.142	0.043187	115.85	336.11	0.011418	0.023655	0.028437
0.144	0.038536	117.09	337.7	0.010873	0.023462	0.03114
0.146	0.032745	118.29	339.3	0.010329	0.023268	0.033843
0.148	0.0265	119.44	340.71	0.007945	0.022307	0.03494
0.15	0.020585	120.56	342.13	0.0055615	0.021345	0.036036
0.152	0.01571	121.62	343.38	0.003178	0.020383	0.037133
0.154	0.012354	122.64	344.47	0.00079444	0.019421	0.038229
0.156	0.010653	123.61	345.55	-0.0015891	0.01846	0.039326
0.158	0.010378	124.52	346.24	-0.0035603	0.017437	0.037921
0.16	0.010988	125.39	346.92	-0.0055315	0.016415	0.036516
0.162	0.011762	126.19	347.41	-0.0075027	0.015392	0.035112
0.164	0.011962	126.94	347.7	-0.009474	0.01437	0.033707
0.166	0.011002	127.64	348	-0.011445	0.013347	0.032302
0.168	0.0085914	128.27	348.03	-0.011367	0.012852	0.029178
0.17	0.0047977	128.84	348.05	-0.011289	0.012357	0.026053
0.172	1.854e-05	129.34	348.02	-0.011211	0.011861	0.022929
0.174	-0.0051076	129.79	347.93	-0.011133	0.011366	0.019804
0.176	-0.0098474	130.16	347.83	-0.011055	0.01087	0.01668
0.178	-0.013549	130.48	347.75	-0.0095834	0.010663	0.01437
0.18	-0.015793	130.73	347.66	-0.0081115	0.010455	0.012061
0.182	-0.016485	130.91	347.6	-0.0066396	0.010247	0.0097516
0.184	-0.015869	131.02	347.57	-0.0051677	0.010039	0.0074423
0.186	-0.01447	131.08	347.54	-0.0036959	0.0098312	0.0051329
0.188	-0.012965	131.06	347.52	-0.0026448	0.0094294	0.0053205
0.19	-0.01203	130.99	347.49	-0.0015937	0.0090276	0.005508
0.192	-0.01218	130.86	347.39	-0.00054267	0.0086258	0.0056955
0.194	-0.013662	130.66	347.22	0.00050839	0.0082239	0.005883
0.196	-0.016404	130.41	347.05	0.0015594	0.0078221	0.0060706
0.198	-0.02005	130.11	346.58	0.0014481	0.0072654	0.007349
0.2	-0.024048	129.75	346.1	0.0013368	0.0067087	0.0086275
0.202	-0.027788	129.35	345.4	0.0012255	0.0061519	0.009906
0.204	-0.03075	128.9	344.48	0.0011141	0.0055952	0.011185
0.206	-0.032623	128.4	343.56	0.0010028	0.0050385	0.012463
0.208	-0.033363	127.87	342.16	0.00054079	0.0045487	0.011658
0.21	-0.033196	127.29	340.75	7.8771e-05	0.0040588	0.010852
0.212	-0.032552	126.69	339.13	-0.00038325	0.003569	0.010047
0.214	-0.031953	126.05	337.3	-0.00084527	0.0030791	0.0092416
0.216	-0.031888	125.38	335.47	-0.0013073	0.0025893	0.0084362
0.218	-0.032703	124.69	333.35	-0.0011984	0.0021083	0.0045506
0.22	-0.034523	123.97	331.22	-0.0010895	0.0016272	0.00066497
0.222	-0.037242	123.23	329.02	-0.00098065	0.0011461	-0.0032207
0.224	-0.040569	122.47	326.75	-0.00087177	0.00066506	-0.0071063
0.226	-0.044105	121.69	324.48	-0.00076289	0.000184	-0.010992
0.228	-0.047452	120.9	322.15	-5.9855e-05	-0.00027862	-0.014506
0.23	-0.050303	120.09	319.82	0.00064318	-0.00074123	-0.01802
0.232	-0.052505	119.26	317.46	0.0013462	-0.0012038	-0.021535
0.234	-0.054076	118.42	315.07	0.0020493	-0.0016665	-0.025049
0.236	-0.055169	117.56	312.69	0.0027523	-0.0021291	-0.028563
0.238	-0.056008	116.69	310.15	0.0038732	-0.0023312	-0.027099
0.24	-0.056811	115.8	307.62	0.0049942	-0.0025333	-0.025634
0.242	-0.057705	114.89	304.94	0.0061151	-0.0027354	-0.02417
0.244	-0.058701	113.96	302.13	0.0072361	-0.0029375	-0.022706
0.246	-0.0597	113.02	299.32	0.008357	-0.0031396	-0.021241
0.248	-0.060533	112.04	296.13	0.010187	-0.003147	-0.015212
0.25	-0.061043	111.05	292.95	0.012017	-0.0031543	-0.0091826
0.252	-0.061167	110.02	289.57	0.013847	-0.0031617	-0.0031532
0.254	-0.060993	108.96	286.01	0.015677	-0.0031691	0.0028761
0.256	-0.060782	107.87	282.44	0.017507	-0.0031765	0.0089054
0.258	-0.060937	106.75	278.63	0.019796	-0.0035146	0.013447
0.26	-0.061916	105.58	274.82	0.022086	-0.0038527	0.017988
0.262	-0.064107	104.37	271.01	0.024375	-0.0041908	0.022529
0.264	-0.067714	103.12	267.19	0.026664	-0.0045289	0.02707
0.266	-0.07266	101.83	263.37	0.028954	-0.004867	0.031611
0.268	-0.078539	100.49	259.83	0.030041	-0.0058423	0.029743
0.27	-0.084645	99.098	256.29	0.031129	-0.0068177	0.027876
0.272	-0.090077	97.659	253	0.032216	-0.0077931	0.026009
0.274	-0.093902	96.17	249.96	0.033304	-0.0087684	0.024141
0.276	-0.095333	94.631	246.92	0.034392	-0.0097438	0.022274
0.278	-0.093892	93.042	244.5	0.032837	-0.010936	0.015307
0.28	-0.089544	91.405	242.08	0.031283	-0.012128	0.0083395
0.282	-0.082739	89.721	239.94	0.029728	-0.013321	0.0013724
0.284	-0.074352	87.993	238.08	0.028173	-0.014513	-0.0055948
0.286	-0.065538	86.222	236.21	0.026619	-0.015705	-0.012562
0.288	-0.057552	84.415	234.7	0.023503	-0.01633	-0.019681
0.29	-0.051529	82.571	233.19	0.020387	-0.016956	-0.026799
0.292	-0.04827	80.699	231.71	0.017271	-0.017581	-0.033918
0.294	-0.048109	78.799	230.26	0.014155	-0.018207	-0.041037
0.296	-0.05087	76.883	228.81	0.011039	-0.018832	-0.048156
0.298	-0.055907	74.95	227.14	0.0091615	-0.018443	-0.051842
0.3	-0.06223	73.014	225.47	0.0072843	-0.018053	-0.055529
0.302	-0.068705	71.074	223.59	0.0054072	-0.017664	-0.059216
0.304	-0.074255	69.144	221.49	0.0035301	-0.017274	-0.062902
0.306	-0.078054	67.224	219.39	0.001653	-0.016885	-0.066589
0.308	-0.079659	65.33	216.79	0.0021476	-0.015549	-0.065881
0.31	-0.079057	63.461	214.19	0.0026422	-0.014213	-0.065172
0.312	-0.07664	61.632	211.36	0.0031368	-0.012877	-0.064464
0.314	-0.073094	59.843	208.3	0.0036314	-0.011541	-0.063756
0.316	-0.069246	58.109	205.25	0.0041259	-0.010205	-0.063048
0.318	-0.065898	56.429	201.86	0.0051709	-0.0082474	-0.058491
0.32	-0.063679	54.818	198.48	0.0062158	-0.0062895	-0.053935
0.322	-0.062936	53.274	195.02	0.0072607	-0.0043317	-0.049378
0.324	-0.063699	51.81	191.46	0.0083056	-0.0023739	-0.044822
0.326	-0.065705	50.426	187.91	0.0093505	-0.00041602	-0.040265
0.328	-0.068479	49.131	184.32	0.0089524	0.0015693	-0.034035
0.33	-0.071437	47.926	180.73	0.0085542	0.0035545	-0.027805
0.332	-0.07401	46.816	177.16	0.0081561	0.0055398	-0.021574
0.334	-0.075753	45.801	173.61	0.007758	0.0075251	-0.015344
0.336	-0.076401	44.886	170.06	0.0073598	0.0095103	-0.0091134
0.338	-0.075906	44.071	166.58	0.0061413	0.010551	-0.0055455
0.34	-0.074412	43.356	163.1	0.0049228	0.011593	-0.0019777
0.342	-0.07221	42.74	159.67	0.0037043	0.012634	0.0015901
0.344	-0.069665	42.222	156.27	0.0024857	0.013675	0.005158
0.346	-0.067141	41.801	152.88	0.0012672	0.014716	0.0087258
0.348	-0.064946	41.471	149.59	0.001134	0.014114	0.0056558
0.35	-0.063286	41.232	146.3	0.0010008	0.013512	0.0025858
0.352	-0.062256	41.076	143.09	0.00086758	0.01291	-0.00048422
0.354	-0.061842	41.002	139.96	0.00073437	0.012308	-0.0035542
0.356	-0.06195	41	136.82	0.00060116	0.011706	-0.0066242
0.358	-0.062441	41.069	133.92	0.0015749	0.0099978	-0.015166
0.36	-0.063156	41.196	131.02	0.0025487	0.0082899	-0.023708
0.362	-0.063949	41.38	128.27	0.0035225	0.006582	-0.03225
0.364	-0.064699	41.608	125.68	0.0044963	0.004874	-0.040791
0.366	-0.065316	41.88	123.08	0.0054701	0.0031661	-0.049333
0.368	-0.065741	42.179	120.85	0.0057348	0.0019266	-0.056513
0.37	-0.065932	42.506	118.61	0.0059995	0.0006871	-0.063693
0.372	-0.065864	42.845	116.56	0.0062642	-0.00055242	-0.070873
0.374	-0.065515	43.197	114.7	0.0065289	-0.0017919	-0.078052
0.376	-0.064871	43.546	112.83	0.0067937	-0.0030315	-0.085232
0.378	-0.063924	43.892	111.3	0.0056478	-0.002694	-0.085009
0.38	-0.062668	44.222	109.76	0.004502	-0.0023565	-0.084785
0.382	-0.061109	44.535	108.36	0.0033562	-0.0020191	-0.084562
0.384	-0.059265	44.82	107.08	0.0022103	-0.0016816	-0.084339
0.386	-0.057161	45.075	105.81	0.0010645	-0.0013441	-0.084115
0.388	-0.054829	45.292	104.72	-2.7635e-05	-5.9956e-05	-0.077544
0.39	-0.052308	45.469	103.62	-0.0011198	0.0012242	-0.070972
0.392	-0.049633	45.6	102.6	-0.0022119	0.0025084	-0.0644
0.394	-0.04684	45.683	101.64	-0.003304	0.0037925	-0.057828
0.396	-0.043962	45.715	100.68	-0.0043961	0.0050767	-0.051257
0.398	-0.041038	45.694	99.824	-0.00404	0.0053501	-0.045222
0.4	-0.038111	45.618	98.972	-0.0036838	0.0056236	-0.039187
0.402	-0.035229	45.486	98.176	-0.0033277	0.005897	-0.033152
0.404	-0.032449	45.299	97.438	-0.0029716	0.0061704	-0.027117
0.406	-0.029836	45.057	96.7	-0.0026154	0.0064439	-0.021081
0.408	-0.027463	44.76	96.094	-0.0013851	0.0044826	-0.021488
0.41	-0.025395	44.409	95.488	-0.00015478	0.0025214	-0.021894
0.412	-0.023687	44.008	94.952	0.0010755	0.0005601	-0.0223
0.414	-0.022374	43.556	94.487	0.0023059	-0.0014012	-0.022706
0.416	-0.021473	43.057	94.022	0.0035362	-0.0033624	-0.023112
0.418	-0.020972	42.513	93.689	0.0040247	-0.0063829	-0.029539
0.42	-0.020824	41.928	93.356	0.0045133	-0.0094033	-0.035966
0.422	-0.020962	41.303	93.075	0.0050019	-0.012424	-0.042392
0.424	-0.021301	40.643	92.847	0.0054904	-0.015444	-0.048819
0.426	-0.021742	39.948	92.619	0.005979	-0.018465	-0.055246
0.428	-0.022177	39.225	92.464	0.005079	-0.019949	-0.061502
0.43	-0.022506	38.472	92.31	0.0041791	-0.021433	-0.067759
0.432	-0.022645	37.695	92.182	0.0032792	-0.022917	-0.074016
0.434	-0.022533	36.893	92.08	0.0023793	-0.024401	-0.080272
0.436	-0.022129	36.072	91.978	0.0014794	-0.025886	-0.086529
0.438	-0.021427	35.23	91.927	-2.7986e-05	-0.024584	-0.086475
0.44	-0.020455	34.37	91.876	-0.0015354	-0.023283	-0.086422
0.442	-0.019262	33.493	91.856	-0.0030428	-0.021982	-0.086368
0.444	-0.017918	32.599	91.866	-0.0045502	-0.020681	-0.086315
0.446	-0.016504	31.688	91.875	-0.0060576	-0.01938	-0.086261
0.448	-0.0151	30.759	91.951	-0.0071806	-0.016633	-0.079231
0.45	-0.013771	29.812	92.026	-0.0083035	-0.013885	-0.072201
0.452	-0.01256	28.846	92.124	-0.0094265	-0.011138	-0.065171
0.454	-0.01149	27.86	92.244	-0.01055	-0.0083907	-0.05814
0.456	-0.010557	26.851	92.363	-0.011673	-0.0056434	-0.05111
0.458	-0.0097389	25.818	92.47	-0.012138	-0.0038417	-0.041818
0.46	-0.009007	24.756	92.577	-0.012604	-0.0020399	-0.032526
0.462	-0.0083365	23.666	92.633	-0.013069	-0.00023821	-0.023234
0.464	-0.0077134	22.543	92.638	-0.013535	0.0015635	-0.013942
0.466	-0.0071421	21.385	92.644	-0.014	0.0033652	-0.0046499
0.468	-0.0066414	20.188	92.458	-0.013799	0.003026	0.00094699
0.47	-0.006238	18.951	92.271	-0.013597	0.0026868	0.0065439
0.472	-0.0059558	17.668	91.959	-0.013396	0.0023476	0.012141
0.474	-0.0057994	16.34	91.523	-0.013194	0.0020084	0.017738
0.476	-0.0057423	14.962	91.086	-0.012993	0.0016692	0.023335
0.478	-0.005724	13.533	90.407	-0.011938	-0.00013505	0.022161
0.48	-0.0056522	12.05	89.727	-0.010884	-0.0019393	0.020988
0.482	-0.0054168	10.512	88.968	-0.0098289	-0.0037436	0.019815
0.484	-0.0049103	8.9176	88.128	-0.0087742	-0.0055479	0.018641
0.486	-0.0040505	7.2665	87.289	-0.0077195	-0.0073522	0.017468
0.488	-0.0028017	5.5579	86.434	-0.0062159	-0.0091716	0.011516
0.49	-0.0011917	3.792	85.579	-0.0047123	-0.010991	0.0055633
0.492	0.00068395	1.9702	84.795	-0.0032086	-0.01281	-0.00038903
0.494	0.0026812	0.092398	84.084	-0.001705	-0.01463	-0.0063414
0.496	0.0046301	-1.8377	83.373	-0.00020132	-0.016449	-0.012294
0.498	0.0063649	-3.8201	82.93	0.00047544	-0.017415	-0.017594
0.5	0.0077621	-5.8491	82.486	0.0011522	-0.018382	-0.022895
0.502	0.0087633	-7.9247	82.199	0.001829	-0.019348	-0.028195
0.504	0.0093927	-10.039	82.067	0.0025057	-0.020314	-0.033496
0.506	0.0097592	-12.193	81.936	0.0031825	-0.02128	-0.038796
0.508	0.010026	-14.376	82.061	0.0024221	-0.021382	-0.039665
0.51	0.010376	-16.589	82.186	0.0016617	-0.021484	-0.040534
0.512	0.010968	-18.821	82.372	0.00090124	-0.021586	-0.041403
0.514	0.011898	-21.072	82.618	0.00014083	-0.021688	-0.042272
0.516	0.013166	-23.33	82.864	-0.00061959	-0.02179	-0.043141
0.518	0.014669	-25.597	83.059	-0.0016863	-0.021379	-0.040357
0.52	0.016211	-27.859	83.253	-0.0027531	-0.020969	-0.037572
0.522	0.017536	-30.117	83.347	-0.0038198	-0.020558	-0.034787
0.524	0.018385	-32.36	83.339	-0.0048866	-0.020148	-0.032002
0.526	0.018547	-34.587	83.332	-0.0059534	-0.019737	-0.029218
0.528	0.017914	-36.788	83.041	-0.0058889	-0.019173	-0.025655
0.53	0.016513	-38.964	82.75	-0.0058244	-0.018609	-0.022092
0.532	0.014512	-41.104	82.321	-0.0057599	-0.018044	-0.018529
0.534	0.0122	-43.209	81.755	-0.0056954	-0.01748	-0.014966
0.536	0.0099456	-45.271	81.189	-0.005631	-0.016915	-0.011403
0.538	0.008126	-47.291	80.433	-0.0046292	-0.016323	-0.0085677
0.54	0.0070575	-49.262	79.678	-0.0036274	-0.015731	-0.0057326
0.542	0.0069322	-51.186	78.888	-0.0026256	-0.015138	-0.0028975
0.544	0.0077741	-53.06	78.064	-0.0016238	-0.014546	-6.2357e-05
0.546	0.0094228	-54.882	77.24	-0.00062195	-0.013954	0.0027728
0.548	0.011552	-56.654	76.454	-0.00016884	-0.013085	0.0050786
0.55	0.013721	-58.374	75.668	0.00028427	-0.012216	0.0073845
0.552	0.015449	-60.046	74.926	0.00073738	-0.011347	0.0096904
0.554	0.016299	-61.669	74.228	0.0011905	-0.010478	0.011996
0.556	0.015947	-63.247	73.529	0.0016436	-0.0096094	0.014302
0.558	0.014254	-64.782	72.894	0.00075806	-0.0082843	0.016215
0.56	0.011298	-66.278	72.259	-0.00012748	-0.0069593	0.018127
0.562	0.0073583	-67.737	71.611	-0.001013	-0.0056342	0.02004
0.564	0.0028733	-69.166	70.95	-0.0018986	-0.0043091	0.021953
0.566	-0.0016251	-70.565	70.29	-0.0027841	-0.002984	0.023866
0.568	-0.0056033	-71.945	69.484	-0.0042621	-0.0016479	0.024472
0.57	-0.008623	-73.304	68.678	-0.0057401	-0.00031179	0.025079
0.572	-0.010417	-74.652	67.746	-0.0072181	0.0010243	0.025686
0.574	-0.010935	-75.99	66.686	-0.0086961	0.0023604	0.026293
0.576	-0.010354	-77.328	65.626	-0.010174	0.0036965	0.026899
0.578	-0.0090519	-78.666	64.245	-0.011223	0.0042405	0.025691
0.58	-0.0075308	-80.012	62.864	-0.012272	0.0047845	0.024482
0.582	-0.0063214	-81.367	61.319	-0.013321	0.0053284	0.023273
0.584	-0.0058786	-82.74	59.609	-0.01437	0.0058724	0.022065
0.586	-0.0064825	-84.13	57.9	-0.015419	0.0064164	0.020856
0.588	-0.0081725	-85.543	55.91	-0.015879	0.0057378	0.019401
0.59	-0.010723	-86.98	53.921	-0.016339	0.0050592	0.017946
0.592	-0.013671	-88.446	51.837	-0.016799	0.0043806	0.016491
0.594	-0.01639	-89.94	49.658	-0.01726	0.0037021	0.015036
0.596	-0.018212	-91.465	47.479	-0.01772	0.0030235	0.013581
0.598	-0.018553	-93.02	45.225	-0.017541	0.0014497	0.013555
0.6	-0.01705	-94.607	42.971	-0.017362	-0.00012404	0.013528
0.602	-0.013643	-96.225	40.741	-0.017183	-0.0016978	0.013502
0.604	-0.008629	-97.871	38.536	-0.017004	-0.0032716	0.013475
0.606	-0.0026323	-99.545	36.331	-0.016826	-0.0048453	0.013449
0.608	0.0034868	-101.24	34.302	-0.015431	-0.0062851	0.013758
0.61	0.0087803	-102.97	32.273	-0.014036	-0.007725	0.014067
0.612	0.012384	-104.71	30.395	-0.012641	-0.0091648	0.014376
0.614	0.013696	-106.46	28.668	-0.011246	-0.010605	0.014685
0.616	0.012515	-108.23	26.941	-0.0098516	-0.012045	0.014994
0.618	0.0091207	-110.01	25.632	-0.0075503	-0.012186	0.013836
0.62	0.0042559	-111.79	24.323	-0.005249	-0.012328	0.012678
0.622	-0.00097316	-113.56	23.268	-0.0029478	-0.01247	0.011519
0.624	-0.0052718	-115.33	22.468	-0.0006465	-0.012611	0.010361
0.626	-0.0073841	-117.09	21.667	0.0016548	-0.012753	0.0092026
0.628	-0.006331	-118.83	21.416	0.0028268	-0.011251	0.00771
0.63	-0.0016171	-120.55	21.166	0.0039988	-0.0097495	0.0062173
0.632	0.0066389	-122.24	21.176	0.0051708	-0.0082477	0.0047247
0.634	0.017675	-123.91	21.447	0.0063428	-0.006746	0.003232
0.636	0.030167	-125.54	21.718	0.0075148	-0.0052443	0.0017393
0.638	0.042407	-127.13	22.404	0.0059531	-0.0029748	0.0023969
0.64	0.05256	-128.69	23.089	0.0043913	-0.00070534	0.0030544
0.642	0.05896	-130.2	23.893	0.0028296	0.0015641	0.003712
0.644	0.060368	-131.66	24.817	0.0012679	0.0038336	0.0043695
0.646	0.05619	-133.08	25.741	-0.00029388	0.006103	0.0050271
0.648	0.046579	-134.44	26.692	-0.0036513	0.0077044	0.0078558
0.65	0.03242	-135.76	27.644	-0.0070088	0.0093058	0.010684
0.652	0.015208	-137.04	28.512	-0.010366	0.010907	0.013513
0.654	-0.0031797	-138.26	29.297	-0.013724	0.012509	0.016342
0.656	-0.02075	-139.44	30.081	-0.017081	0.01411	0.01917
0.658	-0.035689	-140.57	30.564	-0.019924	0.014113	0.021934
0.66	-0.046606	-141.66	31.047	-0.022768	0.014116	0.024698
0.662	-0.052705	-142.71	31.359	-0.025611	0.014119	0.027461
0.664	-0.053858	-143.73	31.5	-0.028454	0.014122	0.030225
0.666	-0.050568	-144.71	31.641	-0.031297	0.014125	0.032989
0.668	-0.043849	-145.66	31.493	-0.032257	0.012837	0.034014
0.67	-0.03504	-146.59	31.345	-0.033217	0.01155	0.035039
0.672	-0.025581	-147.5	31.111	-0.034177	0.010263	0.036064
0.674	-0.016804	-148.39	30.792	-0.035137	0.0089762	0.037089
0.676	-0.0097616	-149.27	30.473	-0.036096	0.0076891	0.038114
