t	ekg	optical	pressure	accel_x	accel_y	accel_z
0	-0.015767	270.83	1.4274	0.0014488	0.0029463	0.00053914
0.002	-0.015543	271.32	1.4297	0.0016332	0.0028284	0.00024859
0.004	-0.015304	271.81	1.432	0.0018176	0.0027105	-4.1963e-05
0.006	-0.015046	272.27	1.4343	0.002002	0.0025926	-0.00033251
0.008	-0.014768	272.71	1.4298	0.0021864	0.0024747	-0.00062306
0.01	-0.014474	273.11	1.4254	0.0023708	0.0023567	-0.00091361
0.012	-0.014171	273.47	1.4177	0.0025552	0.0022388	-0.0012042
0.014	-0.013872	273.8	1.4068	0.0027396	0.0021209	-0.0014947
0.016	-0.013592	274.08	1.3958	0.002924	0.002003	-0.0017853
0.018	-0.013346	274.32	1.3788	0.00274	0.0018777	-0.0018827
0.02	-0.013143	274.52	1.3618	0.0025561	0.0017524	-0.0019802
0.022	-0.012987	274.67	1.3421	0.0023721	0.0016272	-0.0020777
0.024	-0.012872	274.77	1.3197	0.0021881	0.0015019	-0.0021752
0.026	-0.012786	274.82	1.2973	0.0020041	0.0013766	-0.0022727
0.028	-0.012711	274.82	1.2702	0.0015192	0.0011486	-0.0020333
0.03	-0.012626	274.76	1.243	0.0010343	0.00092055	-0.001794
0.032	-0.012513	274.65	1.2137	0.00054936	0.00069253	-0.0015547
0.034	-0.012359	274.49	1.1823	6.4436e-05	0.00046451	-0.0013153
0.036	-0.012163	274.27	1.1508	-0.00042048	0.00023649	-0.001076
0.038	-0.011928	274	1.1154	-0.0008705	-9.7644e-05	-0.00070325
0.04	-0.011668	273.67	1.08	-0.0013205	-0.00043178	-0.0003305
0.042	-0.011402	273.29	1.0427	-0.0017705	-0.00076591	4.2245e-05
0.044	-0.011148	272.85	1.0034	-0.0022206	-0.0011	0.00041499
0.046	-0.010922	272.37	0.96415	-0.0026706	-0.0014342	0.00078774
0.048	-0.010735	271.83	0.9212	-0.0027737	-0.0016819	0.00095506
0.05	-0.010586	271.24	0.87825	-0.0028768	-0.0019296	0.0011224
0.052	-0.010469	270.61	0.83358	-0.0029799	-0.0021773	0.0012897
0.054	-0.010373	269.93	0.78721	-0.003083	-0.0024251	0.001457
0.056	-0.010282	269.2	0.74083	-0.0031861	-0.0026728	0.0016243
0.058	-0.010182	268.43	0.69151	-0.0028825	-0.0026264	0.0014555
0.06	-0.010063	267.63	0.6422	-0.0025788	-0.00258	0.0012867
0.062	-0.0099206	266.78	0.59178	-0.0022751	-0.0025336	0.0011178
0.064	-0.0097568	265.9	0.54023	-0.0019715	-0.0024872	0.00094901
0.066	-0.0095798	264.98	0.48869	-0.0016678	-0.0024408	0.00078018
0.068	-0.0094006	264.04	0.43569	-0.0011864	-0.0021262	0.00048116
0.07	-0.009231	263.06	0.38268	-0.00070498	-0.0018117	0.00018214
0.072	-0.0090807	262.06	0.32927	-0.00022358	-0.0014972	-0.00011688
0.074	-0.008956	261.03	0.27544	0.00025783	-0.0011827	-0.0004159
0.076	-0.0088576	259.97	0.22162	0.00073924	-0.00086818	-0.00071492
0.078	-0.0087821	258.9	0.16728	0.0010903	-0.00049373	-0.00086552
0.08	-0.0087226	257.8	0.11294	0.0014414	-0.00011928	-0.0010161
0.082	-0.008671	256.68	0.058286	0.0017924	0.00025517	-0.0011667
0.084	-0.0086188	255.54	0.0033183	0.0021435	0.00062962	-0.0013173
0.086	-0.0085598	254.38	-0.051649	0.0024946	0.0010041	-0.001468
0.088	-0.0084905	253.21	-0.10772	0.0026124	0.001295	-0.0014618
0.09	-0.0084106	252.02	-0.16379	0.0027303	0.001586	-0.0014557
0.092	-0.0083224	250.81	-0.22072	0.0028482	0.0018769	-0.0014496
0.094	-0.0082308	249.59	-0.27853	0.0029661	0.0021678	-0.0014435
0.096	-0.008142	248.34	-0.33633	0.0030839	0.0024588	-0.0014374
0.098	-0.0080633	247.08	-0.39636	0.0030876	0.0026443	-0.0014736
0.1	-0.0080014	245.81	-0.45639	0.0030912	0.0028297	-0.0015099
0.102	-0.0079627	244.51	-0.51761	0.0030948	0.0030152	-0.0015461
0.104	-0.0079521	243.2	-0.58	0.0030984	0.0032007	-0.0015824
0.106	-0.007972	241.87	-0.64239	0.0031021	0.0033861	-0.0016187
0.108	-0.0080215	240.51	-0.70677	0.0030791	0.0034182	-0.00174
0.11	-0.0080955	239.14	-0.77115	0.0030561	0.0034502	-0.0018613
0.112	-0.0081847	237.74	-0.83613	0.0030332	0.0034823	-0.0019826
0.114	-0.0082754	236.32	-0.90172	0.0030102	0.0035143	-0.0021039
0.116	-0.0083513	234.87	-0.96731	0.0029873	0.0035464	-0.0022253
0.118	-0.0083954	233.4	-1.0332	0.002868	0.0033199	-0.0022306
0.12	-0.0083936	231.9	-1.099	0.0027488	0.0030935	-0.002236
0.122	-0.0083373	230.37	-1.1646	0.0026295	0.002867	-0.0022414
0.124	-0.0082263	228.82	-1.2298	0.0025103	0.0026406	-0.0022467
0.126	-0.0080705	227.23	-1.2951	0.002391	0.0024141	-0.0022521
0.128	-0.0078887	225.62	-1.3594	0.0021084	0.0019299	-0.0020022
0.13	-0.0077064	223.97	-1.4237	0.0018258	0.0014458	-0.0017523
0.132	-0.0075517	222.29	-1.4875	0.0015431	0.00096156	-0.0015024
0.134	-0.0074492	220.59	-1.5508	0.0012605	0.00047736	-0.0012524
0.136	-0.007415	218.85	-1.6141	0.00097785	-6.8381e-06	-0.0010025
0.138	-0.0074526	217.07	-1.6769	0.00061597	-0.00054864	-0.00062628
0.14	-0.0075513	215.27	-1.7398	0.00025409	-0.0010904	-0.00025003
0.142	-0.0076874	213.44	-1.8026	-0.00010779	-0.0016322	0.00012622
0.144	-0.0078284	211.57	-1.8654	-0.00046966	-0.002174	0.00050246
0.146	-0.0079401	209.67	-1.9282	-0.00083154	-0.0027159	0.00087871
0.148	-0.0079934	207.75	-1.9912	-0.0011245	-0.0030525	0.0011535
0.15	-0.0079711	205.79	-2.0543	-0.0014174	-0.0033891	0.0014283
0.152	-0.0078728	203.81	-2.1173	-0.0017103	-0.0037258	0.0017031
0.154	-0.007715	201.8	-2.1804	-0.0020032	-0.0040624	0.0019779
0.156	-0.007528	199.77	-2.2434	-0.0022962	-0.0043991	0.0022527
0.158	-0.0073503	197.71	-2.3057	-0.002469	-0.0044213	0.0023596
0.16	-0.0072196	195.62	-2.368	-0.0026418	-0.0044435	0.0024666
0.162	-0.0071649	193.52	-2.4293	-0.0028146	-0.0044657	0.0025736
0.164	-0.007199	191.4	-2.4897	-0.0029874	-0.0044879	0.0026805
0.166	-0.0073164	189.25	-2.5501	-0.0031602	-0.0045101	0.0027875
0.168	-0.0074941	187.09	-2.6073	-0.0032575	-0.0043324	0.0028365
0.17	-0.0076968	184.91	-2.6646	-0.0033549	-0.0041547	0.0028854
0.172	-0.0078849	182.72	-2.72	-0.0034523	-0.0039771	0.0029344
0.174	-0.0080241	180.52	-2.7734	-0.0035497	-0.0037994	0.0029833
0.176	-0.0080928	178.3	-2.8268	-0.003647	-0.0036217	0.0030322
0.178	-0.0080874	176.07	-2.8762	-0.0036787	-0.0034487	0.0031085
0.18	-0.0080223	173.83	-2.9256	-0.0037104	-0.0032758	0.0031848
0.182	-0.0079267	171.58	-2.9733	-0.0037421	-0.0031028	0.0032611
0.184	-0.0078363	169.33	-3.0193	-0.0037738	-0.0029298	0.0033374
0.186	-0.0077847	167.06	-3.0652	-0.0038055	-0.0027569	0.0034136
0.188	-0.0077949	164.79	-3.1088	-0.0037042	-0.002675	0.0034352
0.19	-0.0078732	162.52	-3.1523	-0.0036029	-0.0025931	0.0034568
0.192	-0.0080074	160.23	-3.1953	-0.0035016	-0.0025113	0.0034783
0.194	-0.00817	157.94	-3.2376	-0.0034003	-0.0024294	0.0034999
0.196	-0.0083246	155.65	-3.28	-0.003299	-0.0023475	0.0035215
0.198	-0.0084347	153.35	-3.3221	-0.0030517	-0.0022589	0.0033476
0.2	-0.0084724	151.05	-3.3642	-0.0028044	-0.0021703	0.0031736
0.202	-0.0084245	148.73	-3.4064	-0.0025571	-0.0020817	0.0029997
0.204	-0.0082955	146.42	-3.4487	-0.0023097	-0.0019931	0.0028258
0.206	-0.008105	144.09	-3.491	-0.0020624	-0.0019045	0.0026519
0.208	-0.0078822	141.76	-3.5334	-0.0018353	-0.0017032	0.0023309
0.21	-0.0076582	139.43	-3.5758	-0.0016082	-0.0015018	0.0020098
0.212	-0.0074577	137.08	-3.6179	-0.0013811	-0.0013004	0.0016888
0.214	-0.0072936	134.73	-3.6597	-0.001154	-0.0010991	0.0013678
0.216	-0.0071645	132.37	-3.7016	-0.00092684	-0.00089773	0.0010468
0.218	-0.0070575	129.99	-3.7423	-0.00095178	-0.00067273	0.0008448
0.22	-0.0069535	127.61	-3.7829	-0.00097673	-0.00044774	0.00064283
0.222	-0.0068345	125.22	-3.8228	-0.0010017	-0.00022274	0.00044086
0.224	-0.0066909	122.81	-3.8619	-0.0010266	2.255e-06	0.00023889
0.226	-0.0065254	120.39	-3.901	-0.0010516	0.00022725	3.6915e-05
0.228	-0.0063536	117.96	-3.9386	-0.0013215	0.00028756	0.00011577
0.23	-0.0061994	115.52	-3.9762	-0.0015913	0.00034786	0.00019462
0.232	-0.0060877	113.06	-4.0133	-0.0018612	0.00040816	0.00027346
0.234	-0.0060351	110.59	-4.05	-0.0021311	0.00046847	0.00035231
0.236	-0.0060425	108.11	-4.0866	-0.002401	0.00052877	0.00043116
0.238	-0.0060916	105.61	-4.1233	-0.00256	0.00043989	0.00059582
0.24	-0.0061455	103.1	-4.16	-0.002719	0.00035102	0.00076048
0.242	-0.0061555	100.57	-4.1973	-0.0028781	0.00026214	0.00092514
0.244	-0.0060724	98.031	-4.2352	-0.0030371	0.00017326	0.0010898
0.246	-0.0058579	95.477	-4.2731	-0.0031961	8.4382e-05	0.0012545
0.248	-0.0054947	92.91	-4.3131	-0.0028958	9.2222e-05	0.0011882
0.25	-0.0049919	90.33	-4.3531	-0.0025955	0.00010006	0.0011219
0.252	-0.0043843	87.737	-4.3945	-0.0022952	0.0001079	0.0010557
0.254	-0.0037237	85.134	-4.4373	-0.0019949	0.00011574	0.00098938
0.256	-0.0030663	82.519	-4.48	-0.0016945	0.00012359	0.00092311
0.258	-0.0024583	79.894	-4.5256	-0.0010558	0.0003566	0.00060963
0.26	-0.0019225	77.26	-4.5712	-0.00041701	0.00058961	0.00029615
0.262	-0.0014522	74.617	-4.6179	0.00022176	0.00082262	-1.7327e-05
0.264	-0.0010114	71.967	-4.6658	0.00086052	0.0010556	-0.00033081
0.266	-0.00054455	69.311	-4.7138	0.0014993	0.0012886	-0.00064429
0.268	8.9598e-06	66.648	-4.7632	0.0019637	0.0015596	-0.00091128
0.27	0.00069692	63.981	-4.8126	0.002428	0.0018306	-0.0011783
0.272	0.0015397	61.31	-4.8622	0.0028924	0.0021016	-0.0014453
0.274	0.0025225	58.636	-4.912	0.0033568	0.0023725	-0.0017123
0.276	0.0035977	55.961	-4.9618	0.0038212	0.0026435	-0.0019793
0.278	0.004697	53.284	-5.0108	0.0037948	0.0027025	-0.0019808
0.28	0.0057514	50.607	-5.0597	0.0037683	0.0027615	-0.0019823
0.282	0.0067139	47.931	-5.1077	0.0037419	0.0028205	-0.0019839
0.284	0.0075792	45.256	-5.1546	0.0037154	0.0028795	-0.0019854
0.286	0.0083927	42.583	-5.2016	0.003689	0.0029385	-0.0019869
0.288	0.0092471	39.912	-5.2456	0.0033843	0.0027754	-0.0018236
0.29	0.010264	37.244	-5.2897	0.0030796	0.0026122	-0.0016602
0.292	0.011565	34.579	-5.3322	0.0027749	0.0024491	-0.0014969
0.294	0.013236	31.919	-5.373	0.0024701	0.002286	-0.0013335
0.296	0.015298	29.262	-5.4137	0.0021654	0.0021228	-0.0011702
0.298	0.017682	26.609	-5.4514	0.0019871	0.0019149	-0.0011069
0.3	0.020235	23.96	-5.489	0.0018087	0.0017069	-0.0010436
0.302	0.022733	21.316	-5.5254	0.0016303	0.001499	-0.00098033
0.304	0.024921	18.675	-5.5605	0.001452	0.001291	-0.00091704
0.306	0.026566	16.039	-5.5956	0.0012736	0.0010831	-0.00085375
0.308	0.027503	13.406	-5.6293	0.0013252	0.00096716	-0.001005
0.31	0.02768	10.777	-5.6629	0.0013769	0.00085124	-0.0011562
0.312	0.027177	8.1508	-5.6963	0.0014285	0.00073531	-0.0013075
0.314	0.026199	5.5278	-5.7296	0.0014801	0.00061939	-0.0014587
0.316	0.025043	2.9075	-5.7628	0.0015317	0.00050346	-0.00161
0.318	0.024042	0.28925	-5.7965	0.0016154	0.00050558	-0.0018271
0.32	0.023495	-2.3269	-5.8302	0.0016991	0.00050769	-0.0020442
0.322	0.023611	-4.9416	-5.8642	0.0017829	0.00050981	-0.0022613
0.324	0.024456	-7.555	-5.8985	0.0018666	0.00051192	-0.0024784
0.326	0.025937	-10.168	-5.9329	0.0019503	0.00051404	-0.0026955
0.328	0.027821	-12.779	-5.9675	0.0019545	0.00062839	-0.0027593
0.33	0.029776	-15.391	-6.0021	0.0019588	0.00074275	-0.0028231
0.332	0.031442	-18.002	-6.0364	0.001963	0.00085711	-0.0028869
0.334	0.032506	-20.613	-6.0704	0.0019673	0.00097146	-0.0029507
0.336	0.032763	-23.224	-6.1045	0.0019715	0.0010858	-0.0030145
0.338	0.032161	-25.835	-6.1369	0.0020363	0.001318	-0.0028803
0.34	0.030808	-28.445	-6.1694	0.0021011	0.0015502	-0.0027461
0.342	0.028943	-31.055	-6.2008	0.0021659	0.0017825	-0.0026118
0.344	0.026879	-33.664	-6.2311	0.0022306	0.0020147	-0.0024776
0.346	0.024929	-36.272	-6.2614	0.0022954	0.0022469	-0.0023434
0.348	0.023335	-38.879	-6.2898	0.0025279	0.0025412	-0.0021319
0.35	0.022211	-41.484	-6.3182	0.0027603	0.0028355	-0.0019205
0.352	0.021518	-44.086	-6.3461	0.0029927	0.0031299	-0.001709
0.354	0.021076	-46.685	-6.3735	0.0032251	0.0034242	-0.0014976
0.356	0.020611	-49.28	-6.4008	0.0034576	0.0037186	-0.0012861
0.358	0.019823	-51.871	-6.4287	0.0036453	0.0038655	-0.0010844
0.36	0.01846	-54.456	-6.4566	0.0038331	0.0040124	-0.00088275
0.362	0.016388	-57.035	-6.4855	0.0040209	0.0041594	-0.00068106
0.364	0.013628	-59.607	-6.5153	0.0042087	0.0043063	-0.00047936
0.366	0.010355	-62.17	-6.5451	0.0043965	0.0044533	-0.00027766
0.368	0.00687	-64.726	-6.5776	0.0041934	0.0041961	-7.0294e-05
0.37	0.0035306	-67.272	-6.61	0.0039903	0.003939	0.00013707
0.372	0.00067582	-69.807	-6.6435	0.0037872	0.0036819	0.00034444
0.374	-0.0014495	-72.332	-6.6782	0.0035841	0.0034248	0.00055181
0.376	-0.0027464	-74.844	-6.7129	0.003381	0.0031676	0.00075918
0.378	-0.0032808	-77.345	-6.7482	0.0027569	0.0025102	0.0009684
0.38	-0.0032636	-79.833	-6.7836	0.0021329	0.0018528	0.0011776
0.382	-0.0029972	-82.307	-6.8182	0.0015088	0.0011954	0.0013868
0.384	-0.0028021	-84.768	-6.8521	0.00088474	0.00053801	0.001596
0.386	-0.0029399	-87.215	-6.886	0.00026068	-0.00011939	0.0018053
0.388	-0.0035535	-89.648	-6.9163	-0.00040433	-0.00079986	0.001932
0.39	-0.0046373	-92.067	-6.9466	-0.0010693	-0.0014803	0.0020588
0.392	-0.0060451	-94.473	-6.9746	-0.0017344	-0.0021608	0.0021855
0.394	-0.0075339	-96.865	-7.0002	-0.0023994	-0.0028412	0.0023123
0.396	-0.0088308	-99.243	-7.0258	-0.0030644	-0.0035217	0.002439
0.398	-0.0097073	-101.61	-7.0468	-0.00338	-0.0037972	0.0024245
0.4	-0.010041	-103.96	-7.0679	-0.0036955	-0.0040727	0.00241
0.402	-0.0098468	-106.31	-7.0874	-0.0040111	-0.0043482	0.0023954
0.404	-0.0092751	-108.64	-7.1055	-0.0043267	-0.0046238	0.0023809
0.406	-0.0085675	-110.97	-7.1236	-0.0046423	-0.0048993	0.0023663
0.408	-0.0079897	-113.28	-7.1412	-0.0045869	-0.0047014	0.0022766
0.41	-0.0077554	-115.59	-7.1589	-0.0045315	-0.0045035	0.0021869
0.412	-0.0079618	-117.89	-7.1776	-0.0044761	-0.0043056	0.0020972
0.414	-0.0085558	-120.19	-7.1974	-0.0044207	-0.0041077	0.0020075
0.416	-0.009341	-122.49	-7.2172	-0.0043653	-0.0039098	0.0019178
0.418	-0.010027	-124.78	-7.2412	-0.0042247	-0.0035643	0.001883
0.42	-0.01031	-127.08	-7.2652	-0.0040842	-0.0032188	0.0018482
0.422	-0.0099615	-129.37	-7.2919	-0.0039437	-0.0028733	0.0018134
0.424	-0.0089105	-131.67	-7.3212	-0.0038032	-0.0025278	0.0017786
0.426	-0.0072823	-133.97	-7.3505	-0.0036626	-0.0021822	0.0017438
0.428	-0.0053913	-136.27	-7.3851	-0.0036684	-0.002053	0.001802
0.43	-0.0036785	-138.58	-7.4197	-0.0036742	-0.0019238	0.0018602
0.432	-0.002605	-140.9	-7.4567	-0.00368	-0.0017947	0.0019184
0.434	-0.0025249	-143.22	-7.496	-0.0036858	-0.0016655	0.0019766
0.436	-0.0035667	-145.55	-7.5354	-0.0036916	-0.0015363	0.0020348
0.438	-0.0055571	-147.88	-7.5789	-0.0037768	-0.0016538	0.0020794
0.44	-0.0080076	-150.23	-7.6223	-0.003862	-0.0017713	0.0021239
0.442	-0.010178	-152.58	-7.6676	-0.0039472	-0.0018888	0.0021684
0.444	-0.011211	-154.94	-7.7147	-0.0040324	-0.0020063	0.0022129
0.446	-0.010314	-157.31	-7.7617	-0.0041176	-0.0021238	0.0022574
0.448	-0.0069547	-159.68	-7.8121	-0.0040316	-0.0021825	0.0021673
0.45	-0.0010246	-162.06	-7.8625	-0.0039456	-0.0022412	0.0020771
0.452	0.0070622	-164.44	-7.9143	-0.0038595	-0.0022999	0.001987
0.454	0.016369	-166.83	-7.9675	-0.0037735	-0.0023586	0.0018968
0.456	0.025543	-169.22	-8.0207	-0.0036874	-0.0024174	0.0018067
0.458	0.033008	-171.61	-8.0756	-0.0033214	-0.0021537	0.0015907
0.46	0.03723	-174	-8.1304	-0.0029553	-0.0018901	0.0013747
0.462	0.036987	-176.38	-8.185	-0.0025893	-0.0016264	0.0011587
0.464	0.031607	-178.76	-8.2394	-0.0022232	-0.0013628	0.00094269
0.466	0.02112	-181.13	-8.2938	-0.0018571	-0.0010991	0.00072668
0.468	0.0062946	-183.49	-8.3448	-0.0014016	-0.00061508	0.00050176
0.47	-0.01145	-185.84	-8.3958	-0.0009461	-0.00013107	0.00027684
0.472	-0.030253	-188.17	-8.4437	-0.00049057	0.00035295	5.1911e-05
0.474	-0.048089	-190.49	-8.4883	-3.5046e-05	0.00083697	-0.00017301
0.476	-0.063086	-192.78	-8.5329	0.00042048	0.001321	-0.00039794
0.478	-0.073801	-195.06	-8.5688	0.00065488	0.0016598	-0.00051401
0.48	-0.079432	-197.31	-8.6047	0.00088928	0.0019985	-0.00063009
0.482	-0.079909	-199.54	-8.6358	0.0011237	0.0023373	-0.00074616
0.484	-0.075861	-201.74	-8.6621	0.0013581	0.002676	-0.00086224
0.486	-0.068467	-203.9	-8.6885	0.0015925	0.0030148	-0.00097831
0.488	-0.059225	-206.04	-8.7061	0.0014509	0.0029399	-0.00091564
0.49	-0.049686	-208.15	-8.7238	0.0013094	0.0028649	-0.00085297
0.492	-0.041193	-210.22	-8.7382	0.0011678	0.00279	-0.00079031
0.494	-0.034692	-212.26	-8.7494	0.0010262	0.0027151	-0.00072764
0.496	-0.030618	-214.26	-8.7606	0.00088467	0.0026401	-0.00066497
0.498	-0.028898	-216.23	-8.768	0.00045745	0.0021851	-0.0004331
0.5	-0.02904	-218.16	-8.7754	3.0236e-05	0.0017301	-0.00020123
0.502	-0.03029	-220.07	-8.7822	-0.00039698	0.001275	3.0638e-05
0.504	-0.031826	-221.93	-8.7882	-0.0008242	0.00082002	0.00026251
0.506	-0.032933	-223.77	-8.7942	-0.0012514	0.00036499	0.00049438
0.508	-0.03314	-225.57	-8.8002	-0.0017067	-0.00018831	0.00075727
0.51	-0.032286	-227.35	-8.8061	-0.002162	-0.0007416	0.0010202
0.512	-0.030516	-229.1	-8.8124	-0.0026173	-0.0012949	0.001283
0.514	-0.028202	-230.82	-8.8191	-0.0030726	-0.0018482	0.0015459
0.516	-0.025836	-232.52	-8.8257	-0.0035279	-0.0024015	0.0018088
0.518	-0.023897	-234.2	-8.8338	-0.0037189	-0.0026826	0.0019045
0.52	-0.022744	-235.87	-8.8419	-0.0039099	-0.0029636	0.0020002
0.522	-0.022536	-237.52	-8.8519	-0.0041008	-0.0032447	0.0020959
0.524	-0.023218	-239.16	-8.8636	-0.0042918	-0.0035258	0.0021916
0.526	-0.024547	-240.8	-8.8753	-0.0044828	-0.0038068	0.0022872
0.528	-0.026162	-242.43	-8.8947	-0.0042768	-0.0035833	0.0021614
0.53	-0.027679	-244.06	-8.914	-0.0040708	-0.0033598	0.0020355
0.532	-0.02877	-245.7	-8.9399	-0.0038649	-0.0031363	0.0019096
0.534	-0.02924	-247.34	-8.9723	-0.0036589	-0.0029128	0.0017837
0.536	-0.02905	-249	-9.0048	-0.0034529	-0.0026893	0.0016579
0.538	-0.028314	-250.67	-9.0559	-0.0030251	-0.0021095	0.0014756
0.54	-0.027257	-252.36	-9.107	-0.0025973	-0.0015296	0.0012934
0.542	-0.026147	-254.06	-9.1692	-0.0021696	-0.00094973	0.0011111
0.544	-0.025235	-255.8	-9.2424	-0.0017418	-0.00036986	0.00092886
0.546	-0.024692	-257.55	-9.3156	-0.001314	0.00021001	0.00074661
0.548	-0.024579	-259.34	-9.4099	-0.0010077	0.00066577	0.00068627
0.55	-0.024846	-261.16	-9.5042	-0.00070135	0.0011215	0.00062592
0.552	-0.02535	-263.01	-9.6059	-0.00039503	0.0015773	0.00056558
0.554	-0.025901	-264.89	-9.715	-8.8714e-05	0.0020331	0.00050523
0.556	-0.026313	-266.82	-9.8241	0.00021761	0.0024888	0.00044488
0.558	-0.026448	-268.77	-9.9372	0.00023992	0.0024614	0.00045754
0.56	-0.026245	-270.77	-10.05	0.00026224	0.002434	0.0004702
0.562	-0.025729	-272.8	-10.159	0.00028456	0.0024065	0.00048286
0.564	-0.024995	-274.87	-10.263	0.00030688	0.0023791	0.00049552
0.566	-0.024185	-276.98	-10.368	0.0003292	0.0023517	0.00050817
0.568	-0.023441	-279.13	-10.453	0.00023736	0.0019695	0.00036338
0.57	-0.022877	-281.31	-10.538	0.00014552	0.0015873	0.00021859
0.572	-0.022551	-283.52	-10.611	5.3677e-05	0.0012051	7.38e-05
0.574	-0.022457	-285.77	-10.672	-3.8165e-05	0.0008229	-7.0991e-05
0.576	-0.022532	-288.06	-10.733	-0.00013001	0.00044071	-0.00021578
0.578	-0.022678	-290.37	-10.773	-3.4113e-05	0.00012923	-0.00063164
0.58	-0.022785	-292.71	-10.813	6.1779e-05	-0.00018224	-0.0010475
0.582	-0.022767	-295.08	-10.847	0.00015767	-0.00049372	-0.0014634
0.584	-0.022573	-297.48	-10.876	0.00025356	-0.00080519	-0.0018792
0.586	-0.0222	-299.89	-10.904	0.00034946	-0.0011167	-0.0022951
0.588	-0.021689	-302.33	-10.937	0.00076179	-0.0011136	-0.0027725
0.59	-0.021108	-304.78	-10.969	0.0011741	-0.0011106	-0.00325
0.592	-0.020532	-307.25	-11.01	0.0015865	-0.0011075	-0.0037275
0.594	-0.020022	-309.74	-11.06	0.0019988	-0.0011044	-0.0042049
0.596	-0.019611	-312.23	-11.11	0.0024111	-0.0011014	-0.0046824
0.598	-0.019295	-314.73	-11.186	0.0029297	-0.00091931	-0.0048479
0.6	-0.019043	-317.24	-11.261	0.0034484	-0.00073722	-0.0050134
0.602	-0.0188	-319.76	-11.348	0.003967	-0.00055513	-0.0051789
0.604	-0.01851	-322.27	-11.448	0.0044857	-0.00037304	-0.0053444
0.606	-0.01813	-324.79	-11.548	0.0050043	-0.00019095	-0.0055099
0.608	-0.017639	-327.3	-11.661	0.0051767	-0.00013577	-0.0052116
0.61	-0.017043	-329.81	-11.774	0.0053491	-8.0594e-05	-0.0049134
0.612	-0.016372	-332.31	-11.885	0.0055215	-2.5414e-05	-0.0046151
0.614	-0.015667	-334.8	-11.993	0.0056939	2.9766e-05	-0.0043169
0.616	-0.014966	-337.29	-12.101	0.0058663	8.4946e-05	-0.0040186
0.618	-0.014294	-339.76	-12.184	0.0054021	-0.00012632	-0.0034946
0.62	-0.013656	-342.22	-12.267	0.0049379	-0.00033759	-0.0029705
0.622	-0.013029	-344.66	-12.329	0.0044737	-0.00054886	-0.0024464
0.624	-0.012377	-347.08	-12.369	0.0040095	-0.00076012	-0.0019223
0.626	-0.011655	-349.48	-12.41	0.0035453	-0.00097139	-0.0013983
0.628	-0.010826	-351.85	-12.398	0.00271	-0.0012633	-0.0010272
0.63	-0.0098699	-354.2	-12.386	0.0018748	-0.0015553	-0.00065623
