t	ekg	optical	pressure	accel_x	accel_y	accel_z
0.002	0.057638	-67.894	13.961	-0.0024288	0.0021298	-0.0028351
0.004	0.057532	-68.685	14.08	-0.0023999	0.0020634	-0.0028116
0.006	0.057093	-69.471	14.199	-0.0023709	0.0019969	-0.002788
0.008	0.056439	-70.252	14.318	-0.0023419	0.0019304	-0.0027645
0.01	0.055736	-71.022	14.438	-0.0023129	0.0018639	-0.0027409
0.012	0.055157	-71.783	14.556	-0.0022839	0.0017974	-0.0027174
0.014	0.054842	-72.529	14.675	-0.002255	0.001731	-0.0026938
0.016	0.054864	-73.259	14.793	-0.002226	0.0016645	-0.0026703
0.018	0.055208	-73.97	14.912	-0.002197	0.001598	-0.0026467
0.02	0.055774	-74.661	15.03	-0.002168	0.0015315	-0.0026232
0.022	0.0564	-75.328	15.147	-0.002008	0.0013926	-0.0024517
0.024	0.056899	-75.971	15.265	-0.001848	0.0012537	-0.0022802
0.026	0.057105	-76.587	15.382	-0.001688	0.0011148	-0.0021088
0.028	0.056912	-77.176	15.497	-0.0015279	0.00097596	-0.0019373
0.03	0.056308	-77.736	15.613	-0.0013679	0.00083707	-0.0017658
0.032	0.055376	-78.267	15.725	-0.0012392	0.00071214	-0.0015485
0.034	0.054278	-78.769	15.838	-0.0011105	0.00058721	-0.0013312
0.036	0.053219	-79.241	15.947	-0.00098181	0.00046228	-0.0011139
0.038	0.052395	-79.684	16.054	-0.0008531	0.00033735	-0.00089659
0.04	0.051942	-80.099	16.16	-0.0007244	0.00021242	-0.00067929
0.042	0.051899	-80.488	16.259	-0.00070193	0.00014816	-0.00053105
0.044	0.052189	-80.851	16.358	-0.00067947	8.3905e-05	-0.00038281
0.046	0.05263	-81.192	16.453	-0.000657	1.9648e-05	-0.00023458
0.048	0.052971	-81.511	16.544	-0.00063453	-4.4609e-05	-8.6339e-05
0.05	0.052947	-81.813	16.635	-0.00061207	-0.00010887	6.1898e-05
0.052	0.052337	-82.098	16.719	-0.00061365	-0.00010565	0.00010195
0.054	0.051027	-82.373	16.802	-0.00061523	-0.00010243	0.000142
0.056	0.049036	-82.638	16.883	-0.00061681	-9.9209e-05	0.00018205
0.058	0.046529	-82.9	16.962	-0.00061839	-9.5989e-05	0.0002221
0.06	0.043788	-83.16	17.041	-0.00061997	-9.277e-05	0.00026215
0.062	0.041161	-83.424	17.119	-0.00051386	-8.4649e-06	0.00022257
0.064	0.038994	-83.692	17.196	-0.00040776	7.584e-05	0.000183
0.066	0.037553	-83.974	17.275	-0.00030166	0.00016015	0.00014342
0.068	0.036976	-84.269	17.355	-0.00019555	0.00024445	0.00010384
0.07	0.037233	-84.585	17.435	-8.9449e-05	0.00032876	6.4267e-05
0.072	0.038129	-84.921	17.519	0.00016659	0.00054054	-3.1909e-05
0.074	0.039343	-85.286	17.604	0.00042262	0.00075232	-0.00012809
0.076	0.040485	-85.678	17.691	0.00067866	0.0009641	-0.00022426
0.078	0.041179	-86.106	17.78	0.0009347	0.0011759	-0.00032044
0.08	0.041133	-86.568	17.869	0.0011907	0.0013877	-0.00041661
0.082	0.0402	-87.07	17.962	0.0014999	0.0017121	-0.00056547
0.084	0.038406	-87.612	18.055	0.0018091	0.0020366	-0.00071432
0.086	0.035947	-88.198	18.149	0.0021182	0.002361	-0.00086317
0.088	0.033152	-88.829	18.244	0.0024274	0.0026855	-0.001012
0.09	0.030418	-89.506	18.338	0.0027365	0.0030099	-0.0011609
0.092	0.028136	-90.231	18.432	0.0029295	0.0032634	-0.0013029
0.094	0.026622	-91.003	18.526	0.0031224	0.003517	-0.0014449
0.096	0.026065	-91.822	18.619	0.0033153	0.0037705	-0.0015869
0.098	0.026493	-92.69	18.711	0.0035082	0.004024	-0.0017289
0.1	0.027784	-93.604	18.804	0.0037011	0.0042775	-0.0018709
0.102	0.029693	-94.564	18.896	0.0036841	0.0042216	-0.0018668
0.104	0.031906	-95.569	18.987	0.0036671	0.0041657	-0.0018627
0.106	0.034099	-96.617	19.08	0.0036501	0.0041098	-0.0018586
0.108	0.035993	-97.706	19.174	0.003633	0.0040539	-0.0018545
0.11	0.037401	-98.832	19.268	0.003616	0.0039981	-0.0018504
0.112	0.03825	-99.996	19.367	0.0034696	0.0036191	-0.0016139
0.114	0.03858	-101.19	19.466	0.0033232	0.0032402	-0.0013773
0.116	0.038526	-102.42	19.569	0.0031767	0.0028612	-0.0011408
0.118	0.038286	-103.67	19.676	0.0030303	0.0024823	-0.0009043
0.12	0.038081	-104.95	19.782	0.0028838	0.0021033	-0.00066778
0.122	0.038123	-106.25	19.898	0.0027747	0.001691	-0.00032261
0.124	0.038582	-107.57	20.013	0.0026657	0.0012787	2.2552e-05
0.126	0.03957	-108.91	20.132	0.0025566	0.00086635	0.00036772
0.128	0.041135	-110.25	20.255	0.0024475	0.00045403	0.00071288
0.13	0.043264	-111.6	20.378	0.0023384	4.1698e-05	0.001058
0.132	0.045895	-112.96	20.505	0.0023222	-9.3326e-05	0.0012405
0.134	0.048922	-114.33	20.632	0.0023059	-0.00022835	0.0014231
0.136	0.052213	-115.69	20.759	0.0022897	-0.00036338	0.0016056
0.138	0.05562	-117.05	20.886	0.0022734	-0.0004984	0.0017881
0.14	0.058992	-118.4	21.014	0.0022572	-0.00063342	0.0019706
0.142	0.062182	-119.75	21.138	0.0022245	-0.00048443	0.0018527
0.144	0.065057	-121.1	21.262	0.0021917	-0.00033544	0.0017349
0.146	0.067518	-122.43	21.384	0.002159	-0.00018644	0.0016171
0.148	0.069503	-123.75	21.503	0.0021262	-3.7447e-05	0.0014993
0.15	0.070998	-125.07	21.622	0.0020935	0.00011155	0.0013815
0.152	0.072036	-126.37	21.738	0.0019439	0.00027049	0.0011311
0.154	0.0727	-127.66	21.853	0.0017943	0.00042944	0.00088069
0.156	0.073098	-128.93	21.967	0.0016447	0.00058838	0.00063028
0.158	0.073355	-130.2	22.08	0.0014952	0.00074733	0.00037987
0.16	0.073578	-131.46	22.193	0.0013456	0.00090627	0.00012946
0.162	0.073843	-132.71	22.307	0.0011498	0.00084775	3.4153e-05
0.164	0.074174	-133.95	22.421	0.00095394	0.00078924	-6.1155e-05
0.166	0.07454	-135.18	22.536	0.00075811	0.00073072	-0.00015646
0.168	0.074865	-136.41	22.653	0.00056228	0.0006722	-0.00025177
0.17	0.075041	-137.63	22.771	0.00036645	0.00061368	-0.00034708
0.172	0.074962	-138.85	22.891	0.00029148	0.00038259	-0.00020362
0.174	0.074545	-140.07	23.012	0.0002165	0.00015149	-6.0165e-05
0.176	0.073756	-141.29	23.134	0.00014152	-7.9603e-05	8.3293e-05
0.178	0.072616	-142.52	23.258	6.6545e-05	-0.0003107	0.00022675
0.18	0.0712	-143.75	23.381	-8.4319e-06	-0.00054179	0.00037021
0.182	0.069613	-144.99	23.504	0.00010062	-0.00074668	0.00058349
0.184	0.067964	-146.23	23.627	0.00020968	-0.00095157	0.00079676
0.186	0.066331	-147.49	23.747	0.00031873	-0.0011565	0.00101
0.188	0.064734	-148.76	23.866	0.00042778	-0.0013613	0.0012233
0.19	0.063126	-150.04	23.985	0.00053684	-0.0015662	0.0014366
0.192	0.061394	-151.34	24.098	0.00072151	-0.0016489	0.0015445
0.194	0.059384	-152.65	24.211	0.00090618	-0.0017315	0.0016524
0.196	0.05694	-153.98	24.32	0.0010908	-0.0018142	0.0017603
0.198	0.053949	-155.33	24.426	0.0012755	-0.0018968	0.0018682
0.2	0.050373	-156.69	24.532	0.0014602	-0.0019795	0.0019762
0.202	0.046277	-158.07	24.633	0.0015666	-0.0020013	0.0019792
0.204	0.041826	-159.47	24.734	0.001673	-0.0020231	0.0019823
0.206	0.037259	-160.88	24.834	0.0017795	-0.0020449	0.0019854
0.208	0.032843	-162.31	24.933	0.0018859	-0.0020667	0.0019885
0.21	0.028813	-163.76	25.032	0.0019923	-0.0020886	0.0019916
0.212	0.025313	-165.21	25.133	0.0019791	-0.0021092	0.0019981
0.214	0.022349	-166.68	25.234	0.0019659	-0.0021298	0.0020047
0.216	0.019762	-168.17	25.337	0.0019527	-0.0021503	0.0020112
0.218	0.017242	-169.66	25.443	0.0019394	-0.0021709	0.0020178
0.22	0.014352	-171.15	25.548	0.0019262	-0.0021915	0.0020243
0.222	0.010592	-172.66	25.659	0.0018861	-0.0021693	0.0021008
0.224	0.0054602	-174.16	25.769	0.001846	-0.002147	0.0021773
0.226	-0.0014772	-175.67	25.882	0.0018058	-0.0021247	0.0022537
0.228	-0.010538	-177.17	25.995	0.0017657	-0.0021024	0.0023302
0.23	-0.021894	-178.67	26.109	0.0017255	-0.0020801	0.0024067
0.232	-0.03556	-180.17	26.222	0.001763	-0.0019654	0.0025374
0.234	-0.05141	-181.65	26.335	0.0018004	-0.0018507	0.0026681
0.236	-0.069197	-183.13	26.445	0.0018379	-0.001736	0.0027988
0.238	-0.088577	-184.59	26.552	0.0018753	-0.0016213	0.0029295
0.24	-0.10912	-186.04	26.66	0.0019127	-0.0015066	0.0030602
0.242	-0.13032	-187.47	26.757	0.0020197	-0.0013647	0.0031941
0.244	-0.15158	-188.88	26.855	0.0021267	-0.0012228	0.0033279
0.246	-0.17219	-190.27	26.947	0.0022337	-0.0010809	0.0034618
0.248	-0.19132	-191.64	27.033	0.0023407	-0.00093908	0.0035956
0.25	-0.20808	-192.99	27.119	0.0024477	-0.00079721	0.0037295
0.252	-0.22148	-194.31	27.193	0.002519	-0.00076637	0.0038016
0.254	-0.23058	-195.61	27.267	0.0025903	-0.00073554	0.0038736
0.256	-0.23456	-196.89	27.338	0.0026616	-0.0007047	0.0039457
0.258	-0.23286	-198.14	27.404	0.0027329	-0.00067387	0.0040178
0.26	-0.22527	-199.37	27.471	0.0028043	-0.00064303	0.0040899
0.262	-0.21203	-200.57	27.535	0.0027718	-0.00077005	0.0040286
0.264	-0.19387	-201.76	27.599	0.0027393	-0.00089707	0.0039673
0.266	-0.17194	-202.92	27.665	0.0027068	-0.0010241	0.003906
0.268	-0.14775	-204.06	27.733	0.0026743	-0.0011511	0.0038447
0.27	-0.12297	-205.18	27.801	0.0026418	-0.0012781	0.0037834
0.272	-0.099263	-206.28	27.88	0.002557	-0.001451	0.0035811
0.274	-0.07805	-207.37	27.959	0.0024722	-0.0016239	0.0033788
0.276	-0.06037	-208.45	28.045	0.0023874	-0.0017968	0.0031764
0.278	-0.046747	-209.52	28.138	0.0023026	-0.0019697	0.0029741
0.28	-0.037156	-210.57	28.232	0.0022178	-0.0021426	0.0027718
0.282	-0.031077	-211.62	28.342	0.0021811	-0.0022123	0.0025457
0.284	-0.027621	-212.67	28.452	0.0021445	-0.0022819	0.0023196
0.286	-0.025702	-213.72	28.569	0.0021078	-0.0023515	0.0020935
0.288	-0.024239	-214.76	28.695	0.0020712	-0.0024212	0.0018674
0.29	-0.022329	-215.82	28.82	0.0020345	-0.0024908	0.0016413
0.292	-0.019382	-216.87	28.957	0.0020771	-0.0024177	0.0015451
0.294	-0.015184	-217.94	29.094	0.0021196	-0.0023447	0.001449
0.296	-0.0098806	-219.02	29.233	0.0021622	-0.0022717	0.0013528
0.298	-0.0038987	-220.11	29.375	0.0022047	-0.0021986	0.0012566
0.3	0.0021788	-221.21	29.517	0.0022473	-0.0021256	0.0011604
0.302	0.0077567	-222.34	29.657	0.0023162	-0.0019795	0.0012231
0.304	0.012359	-223.48	29.797	0.0023852	-0.0018334	0.0012857
0.306	0.015721	-224.64	29.932	0.0024541	-0.0016873	0.0013483
0.308	0.017824	-225.82	30.064	0.002523	-0.0015412	0.001411
0.31	0.018878	-227.03	30.196	0.002592	-0.0013951	0.0014736
0.312	0.019258	-228.25	30.315	0.0026356	-0.001254	0.0015798
0.314	0.019399	-229.51	30.434	0.0026792	-0.001113	0.001686
0.316	0.019704	-230.78	30.546	0.0027228	-0.0009719	0.0017923
0.318	0.020452	-232.08	30.652	0.0027664	-0.00083085	0.0018985
0.32	0.021753	-233.4	30.757	0.00281	-0.00068979	0.0020047
0.322	0.023536	-234.75	30.852	0.0028411	-0.00059291	0.0020414
0.324	0.025589	-236.12	30.946	0.0028721	-0.00049602	0.0020781
0.326	0.027617	-237.51	31.037	0.0029032	-0.00039914	0.0021147
0.328	0.02932	-238.92	31.126	0.0029342	-0.00030226	0.0021514
0.33	0.030463	-240.35	31.214	0.0029653	-0.00020538	0.0021881
0.332	0.030922	-241.81	31.304	0.0030334	-0.00019594	0.0021611
0.334	0.030703	-243.28	31.394	0.0031016	-0.00018651	0.0021341
0.336	0.029931	-244.77	31.488	0.0031697	-0.00017707	0.0021071
0.338	0.028801	-246.27	31.586	0.0032379	-0.00016763	0.0020801
0.34	0.027532	-247.79	31.684	0.0033061	-0.0001582	0.0020531
0.342	0.026309	-249.32	31.795	0.0034197	-0.00030676	0.0020428
0.344	0.025243	-250.86	31.907	0.0035334	-0.00045532	0.0020324
0.346	0.024352	-252.41	32.026	0.0036471	-0.00060389	0.002022
0.348	0.023569	-253.98	32.152	0.0037607	-0.00075245	0.0020116
0.35	0.022769	-255.55	32.278	0.0038744	-0.00090101	0.0020013
0.352	0.021807	-257.13	32.415	0.0039436	-0.0012072	0.0020275
0.354	0.020562	-258.71	32.553	0.0040128	-0.0015133	0.0020537
0.356	0.018967	-260.3	32.694	0.0040819	-0.0018195	0.0020799
0.358	0.017024	-261.9	32.837	0.0041511	-0.0021256	0.002106
0.36	0.014803	-263.51	32.98	0.0042203	-0.0024318	0.0021322
0.362	0.012417	-265.12	33.121	0.0040802	-0.0026977	0.0020927
0.364	0.009991	-266.73	33.262	0.0039401	-0.0029635	0.0020532
0.366	0.0076302	-268.35	33.397	0.0038	-0.0032294	0.0020136
0.368	0.0053911	-269.98	33.528	0.0036598	-0.0034953	0.0019741
0.37	0.0032702	-271.61	33.659	0.0035197	-0.0037611	0.0019346
0.372	0.0012072	-273.25	33.774	0.0030653	-0.0036723	0.0016996
0.374	-0.00089776	-274.89	33.889	0.0026109	-0.0035835	0.0014646
0.376	-0.003156	-276.54	33.996	0.0021565	-0.0034947	0.0012297
0.378	-0.0056623	-278.21	34.094	0.0017021	-0.0034059	0.0009947
0.38	-0.0084717	-279.88	34.192	0.0012477	-0.0033171	0.00075973
0.382	-0.011587	-281.55	34.274	0.00057281	-0.0027601	0.00034125
0.384	-0.014963	-283.24	34.356	-0.00010206	-0.0022031	-7.7227e-05
0.386	-0.018517	-284.94	34.432	-0.00077692	-0.0016461	-0.00049571
0.388	-0.022154	-286.65	34.501	-0.0014518	-0.0010891	-0.00091419
0.39	-0.025789	-288.37	34.571	-0.0021266	-0.00053211	-0.0013327
0.392	-0.029367	-290.09	34.631	-0.002766	0.00020337	-0.0017262
0.394	-0.032874	-291.83	34.692	-0.0034053	0.00093885	-0.0021198
0.396	-0.036336	-293.57	34.749	-0.0040446	0.0016743	-0.0025133
0.398	-0.039804	-295.32	34.802	-0.0046839	0.0024098	-0.0029068
0.4	-0.043341	-297.08	34.855	-0.0053232	0.0031453	-0.0033004
0.402	-0.047002	-298.84	34.899	-0.0056965	0.0035969	-0.0034151
0.404	-0.050815	-300.6	34.943	-0.0060698	0.0040485	-0.0035297
0.406	-0.054782	-302.35	34.98	-0.0064431	0.0045001	-0.0036444
0.408	-0.058875	-304.1	35.011	-0.0068164	0.0049517	-0.0037591
0.41	-0.063046	-305.84	35.041	-0.0071897	0.0054033	-0.0038738
0.412	-0.067249	-307.57	35.05	-0.0072186	0.0053816	-0.0036401
0.414	-0.071448	-309.27	35.059	-0.0072476	0.0053599	-0.0034064
0.416	-0.07563	-310.95	35.054	-0.0072766	0.0053382	-0.0031728
0.418	-0.079809	-312.6	35.035	-0.0073056	0.0053164	-0.0029391
0.42	-0.084015	-314.22	35.016	-0.0073346	0.0052947	-0.0027054
0.422	-0.088287	-315.79	34.964	-0.0070767	0.0050133	-0.0023264
0.424	-0.092653	-317.31	34.912	-0.0068187	0.0047318	-0.0019473
0.426	-0.097114	-318.77	34.844	-0.0065608	0.0044503	-0.0015682
0.428	-0.10164	-320.16	34.758	-0.0063028	0.0041689	-0.0011892
0.43	-0.10617	-321.48	34.673	-0.0060449	0.0038874	-0.00081012
0.432	-0.11061	-322.72	34.557	-0.0056359	0.0036439	-0.00061314
0.434	-0.11488	-323.86	34.442	-0.0052269	0.0034004	-0.00041616
0.436	-0.11889	-324.91	34.316	-0.0048179	0.003157	-0.00021918
0.438	-0.1226	-325.85	34.18	-0.0044089	0.0029135	-2.2202e-05
0.44	-0.12601	-326.67	34.044	-0.0039999	0.00267	0.00017478
0.442	-0.12915	-327.36	33.897	-0.0036278	0.002528	-1.7365e-06
0.444	-0.13212	-327.91	33.751	-0.0032558	0.002386	-0.00017825
0.446	-0.135	-328.32	33.606	-0.0028838	0.0022439	-0.00035476
0.448	-0.13789	-328.59	33.462	-0.0025117	0.0021019	-0.00053128
0.45	-0.14086	-328.68	33.317	-0.0021397	0.0019599	-0.00070779
0.452	-0.14393	-328.62	33.186	-0.0020029	0.0018345	-0.0011721
0.454	-0.14708	-328.37	33.055	-0.0018661	0.0017091	-0.0016365
0.456	-0.15024	-327.95	32.934	-0.0017293	0.0015838	-0.0021009
0.458	-0.15331	-327.34	32.823	-0.0015924	0.0014584	-0.0025652
0.46	-0.15618	-326.53	32.713	-0.0014556	0.0013331	-0.0030296
0.462	-0.15876	-325.53	32.628	-0.0016248	0.0012496	-0.0034968
0.464	-0.16097	-324.32	32.542	-0.001794	0.001166	-0.0039641
0.466	-0.1628	-322.91	32.47	-0.0019632	0.0010825	-0.0044314
0.468	-0.16425	-321.28	32.411	-0.0021324	0.000999	-0.0048987
0.47	-0.16538	-319.45	32.351	-0.0023016	0.00091548	-0.005366
0.472	-0.16624	-317.4	32.315	-0.002552	0.00095057	-0.0055261
0.474	-0.16689	-315.15	32.279	-0.0028023	0.00098565	-0.0056863
0.476	-0.16737	-312.67	32.252	-0.0030527	0.0010207	-0.0058465
0.478	-0.1677	-309.99	32.235	-0.003303	0.0010558	-0.0060067
0.48	-0.16785	-307.1	32.217	-0.0035534	0.0010909	-0.0061669
0.482	-0.1678	-304	32.211	-0.00346	0.0011132	-0.0058366
0.484	-0.16749	-300.7	32.205	-0.0033666	0.0011356	-0.0055063
0.486	-0.16688	-297.19	32.201	-0.0032731	0.0011579	-0.005176
0.488	-0.16595	-293.49	32.2	-0.0031797	0.0011802	-0.0048457
0.49	-0.1647	-289.61	32.198	-0.0030863	0.0012025	-0.0045154
0.492	-0.16316	-285.53	32.194	-0.0024916	0.00096429	-0.0037778
0.494	-0.16138	-281.29	32.189	-0.0018968	0.00072607	-0.0030402
0.496	-0.1594	-276.87	32.18	-0.0013021	0.00048785	-0.0023026
0.498	-0.15727	-272.29	32.166	-0.00070737	0.00024963	-0.001565
0.5	-0.155	-267.55	32.151	-0.00011264	1.141e-05	-0.00082737
0.502	-0.15259	-262.67	32.122	0.00056828	-0.00045448	-8.4829e-05
0.504	-0.14999	-257.64	32.094	0.0012492	-0.00092036	0.00065771
0.506	-0.14716	-252.49	32.056	0.0019301	-0.0013862	0.0014003
0.508	-0.14404	-247.22	32.009	0.002611	-0.0018521	0.0021428
0.51	-0.14057	-241.84	31.962	0.003292	-0.002318	0.0028853
0.512	-0.13672	-236.35	31.896	0.0034879	-0.0026494	0.0031332
0.514	-0.13251	-230.77	31.83	0.0036839	-0.0029808	0.0033811
0.516	-0.12794	-225.1	31.755	0.0038798	-0.0033123	0.003629
0.518	-0.12308	-219.36	31.671	0.0040757	-0.0036437	0.0038769
0.52	-0.11799	-213.54	31.588	0.0042717	-0.0039751	0.0041248
0.522	-0.11272	-207.68	31.489	0.0039432	-0.0039107	0.0037026
0.524	-0.10733	-201.76	31.39	0.0036147	-0.0038463	0.0032805
0.526	-0.10185	-195.8	31.286	0.0032862	-0.003782	0.0028584
0.528	-0.096277	-189.81	31.176	0.0029577	-0.0037176	0.0024362
0.53	-0.090615	-183.79	31.065	0.0026292	-0.0036532	0.0020141
0.532	-0.08485	-177.75	30.947	0.002252	-0.003309	0.0012589
0.534	-0.078979	-171.7	30.828	0.0018748	-0.0029648	0.00050366
0.536	-0.073017	-165.65	30.706	0.0014976	-0.0026206	-0.00025155
0.538	-0.066998	-159.61	30.581	0.0011204	-0.0022764	-0.0010068
0.54	-0.060975	-153.57	30.457	0.00074316	-0.0019322	-0.001762
0.542	-0.055011	-147.54	30.327	0.00061389	-0.0015745	-0.0023135
0.544	-0.04917	-141.54	30.197	0.00048462	-0.0012168	-0.002865
0.546	-0.043498	-135.57	30.064	0.00035536	-0.00085905	-0.0034165
0.548	-0.038018	-129.63	29.928	0.00022609	-0.00050135	-0.003968
0.55	-0.032722	-123.74	29.793	9.6824e-05	-0.00014365	-0.0045195
0.552	-0.027577	-117.88	29.651	-7.3263e-06	0.00011842	-0.0046182
0.554	-0.022533	-112.08	29.509	-0.00011148	0.0003805	-0.0047169
0.556	-0.017534	-106.32	29.362	-0.00021563	0.00064257	-0.0048156
0.558	-0.012541	-100.64	29.212	-0.00031978	0.00090465	-0.0049143
0.56	-0.0075377	-95.008	29.062	-0.00042393	0.0011667	-0.005013
0.562	-0.0025419	-89.452	28.902	-0.00080456	0.0013439	-0.004808
0.564	0.0023982	-83.968	28.743	-0.0011852	0.0015211	-0.0046029
0.566	0.0072114	-78.564	28.579	-0.0015658	0.0016983	-0.0043978
0.568	0.011819	-73.241	28.41	-0.0019465	0.0018755	-0.0041928
0.57	0.016151	-68.007	28.24	-0.0023271	0.0020527	-0.0039877
0.572	0.020162	-62.863	28.062	-0.002876	0.0020975	-0.0037236
0.574	0.023843	-57.818	27.883	-0.003425	0.0021423	-0.0034594
0.576	0.027215	-52.871	27.699	-0.0039739	0.002187	-0.0031953
0.578	0.030335	-48.031	27.511	-0.0045229	0.0022318	-0.0029312
0.58	0.03327	-43.299	27.323	-0.0050718	0.0022766	-0.002667
0.582	0.036089	-38.681	27.126	-0.0054007	0.0021375	-0.0024526
0.584	0.038845	-34.18	26.93	-0.0057296	0.0019984	-0.0022381
0.586	0.041564	-29.802	26.729	-0.0060585	0.0018593	-0.0020237
0.588	0.044237	-25.547	26.524	-0.0063873	0.0017203	-0.0018093
0.59	0.046832	-21.423	26.32	-0.0067162	0.0015812	-0.0015948
0.592	0.049298	-17.43	26.108	-0.0066336	0.001376	-0.0014638
0.594	0.051584	-13.575	25.896	-0.0065509	0.0011709	-0.0013328
0.596	0.053648	-9.8575	25.682	-0.0064683	0.00096577	-0.0012017
0.598	0.055475	-6.2832	25.464	-0.0063856	0.00076063	-0.0010707
0.6	0.057075	-2.8522	25.247	-0.006303	0.0005555	-0.00093969
0.602	0.058483	0.43102	25.025	-0.0060018	0.00050603	-0.00092288
0.604	0.059747	3.5664	24.803	-0.0057007	0.00045655	-0.00090606
0.606	0.060916	6.5508	24.581	-0.0053995	0.00040707	-0.00088925
0.608	0.062026	9.3843	24.356	-0.0050984	0.0003576	-0.00087244
0.61	0.063093	12.065	24.132	-0.0047972	0.00030812	-0.00085562
0.612	0.064105	14.594	23.908	-0.0045888	0.00047683	-0.00092112
0.614	0.065031	16.97	23.683	-0.0043804	0.00064555	-0.00098663
0.616	0.065831	19.194	23.459	-0.004172	0.00081426	-0.0010521
0.618	0.06647	21.267	23.236	-0.0039636	0.00098297	-0.0011176
0.62	0.066929	23.19	23.013	-0.0037552	0.0011517	-0.0011831
0.622	0.06722	24.966	22.791	-0.0037338	0.001359	-0.0012551
0.624	0.06738	26.596	22.57	-0.0037123	0.0015662	-0.001327
0.626	0.067474	28.083	22.349	-0.0036908	0.0017735	-0.001399
0.628	0.067575	29.43	22.13	-0.0036693	0.0019808	-0.0014709
0.63	0.067746	30.642	21.91	-0.0036478	0.0021881	-0.0015429
0.632	0.068031	31.72	21.691	-0.0036756	0.0022282	-0.0016311
0.634	0.068435	32.671	21.472	-0.0037034	0.0022684	-0.0017192
0.636	0.068921	33.497	21.253	-0.0037312	0.0023086	-0.0018074
0.638	0.069422	34.205	21.033	-0.003759	0.0023488	-0.0018956
0.64	0.069845	34.797	20.813	-0.0037867	0.002389	-0.0019838
0.642	0.070102	35.283	20.591	-0.0037391	0.0022591	-0.0021728
0.644	0.070123	35.662	20.369	-0.0036915	0.0021291	-0.0023619
0.646	0.069875	35.945	20.145	-0.0036438	0.0019992	-0.0025509
0.648	0.069374	36.133	19.92	-0.0035962	0.0018693	-0.00274
