t	ekg	optical	pressure	accel_x	accel_y	accel_z
0.002	-0.013611	94.101	2.7925	-3.6645e-05	-0.0011625	-0.00023791
0.004	-0.013693	92.194	2.7517	8.9143e-05	-0.0010122	-0.00036102
0.006	-0.013436	90.287	2.7109	0.00021493	-0.00086193	-0.00048414
0.008	-0.012957	88.399	2.6701	0.00034072	-0.00071165	-0.00060725
0.01	-0.012375	86.53	2.6282	0.0004665	-0.00056137	-0.00073036
0.012	-0.011772	84.681	2.5851	0.00059229	-0.00041109	-0.00085348
0.014	-0.011178	82.852	2.5421	0.00071808	-0.0002608	-0.00097659
0.016	-0.01056	81.043	2.4964	0.00060675	-0.00015473	-0.00091408
0.018	-0.0098465	79.254	2.4507	0.00049543	-4.8653e-05	-0.00085157
0.02	-0.0089498	77.484	2.4037	0.0003841	5.7423e-05	-0.00078906
0.022	-0.0078034	75.731	2.3554	0.00027278	0.0001635	-0.00072655
0.024	-0.0063879	73.995	2.3071	0.00016145	0.00026957	-0.00066404
0.026	-0.0047436	72.275	2.2564	-8.2125e-05	0.00028982	-0.00043242
0.028	-0.0029637	70.567	2.2057	-0.0003257	0.00031008	-0.00020081
0.03	-0.0011715	68.872	2.1542	-0.00056928	0.00033033	3.081e-05
0.032	0.00051446	67.185	2.1019	-0.00081286	0.00035058	0.00026243
0.034	0.0020146	65.506	2.0495	-0.0010564	0.00037083	0.00049405
0.036	0.0033121	63.832	1.9964	-0.0012773	0.00038634	0.00068519
0.038	0.0044589	62.161	1.9433	-0.0014982	0.00040184	0.00087634
0.04	0.0055597	60.489	1.8902	-0.001719	0.00041735	0.0010675
0.042	0.0067381	58.816	1.8373	-0.0019399	0.00043286	0.0012586
0.044	0.0080939	57.137	1.7843	-0.0021607	0.00044837	0.0014498
0.046	0.0096635	55.452	1.7323	-0.0023074	0.00054266	0.0014144
0.048	0.011397	53.758	1.6804	-0.0024541	0.00063695	0.001379
0.05	0.013159	52.053	1.6291	-0.0026009	0.00073124	0.0013436
0.052	0.014755	50.335	1.5786	-0.0027476	0.00082554	0.0013083
0.054	0.015982	48.602	1.528	-0.0028943	0.00091983	0.0012729
0.056	0.016683	46.853	1.4787	-0.002915	0.001054	0.0010391
0.058	0.016804	45.087	1.4294	-0.0029357	0.0011881	0.00080538
0.06	0.016414	43.302	1.3803	-0.0029564	0.0013223	0.00057163
0.062	0.015712	41.497	1.3314	-0.002977	0.0014564	0.00033788
0.064	0.014982	39.673	1.2825	-0.0029977	0.0015906	0.00010413
0.066	0.01453	37.828	1.2326	-0.002798	0.0016559	-0.00012735
0.068	0.014605	35.963	1.1827	-0.0025982	0.0017212	-0.00035883
0.07	0.015331	34.077	1.1314	-0.0023984	0.0017865	-0.00059031
0.072	0.01666	32.172	1.0786	-0.0021986	0.0018517	-0.00082179
0.074	0.018373	30.248	1.0258	-0.0019988	0.001917	-0.0010533
0.076	0.020124	28.306	0.96845	-0.0016479	0.0018865	-0.001107
0.078	0.021514	26.346	0.91104	-0.0012969	0.0018559	-0.0011608
0.08	0.022199	24.371	0.85063	-0.00094599	0.0018253	-0.0012146
0.082	0.021974	22.381	0.78721	-0.00059505	0.0017948	-0.0012683
0.084	0.020844	20.379	0.72379	-0.00024411	0.0017642	-0.0013221
0.086	0.01903	18.366	0.65381	-4.8627e-05	0.0017017	-0.0011694
0.088	0.016932	16.344	0.58383	0.00014686	0.0016392	-0.0010168
0.09	0.01503	14.314	0.51086	0.00034235	0.0015768	-0.00086416
0.092	0.01377	12.28	0.43488	0.00053783	0.0015143	-0.00071152
0.094	0.013439	10.241	0.3589	0.00073332	0.0014518	-0.00055888
0.096	0.014083	8.2018	0.27868	0.00056684	0.0013773	-0.00029525
0.098	0.015473	6.162	0.19846	0.00040036	0.0013029	-3.1619e-05
0.1	0.01715	4.1253	0.11752	0.00023387	0.0012284	0.00023201
0.102	0.018526	2.0915	0.035863	6.7391e-05	0.001154	0.00049564
0.104	0.019031	0.063822	-0.045797	-9.9092e-05	0.0010795	0.00075927
0.106	0.018261	-1.9578	-0.1254	-0.00042007	0.00093506	0.00096974
0.108	0.016097	-3.9709	-0.205	-0.00074105	0.00079057	0.0011802
0.11	0.012756	-5.9754	-0.28175	-0.001062	0.00064609	0.0013907
0.112	0.0087568	-7.9698	-0.35563	-0.001383	0.00050161	0.0016011
0.114	0.0048047	-9.9539	-0.42951	-0.001704	0.00035712	0.0018116
0.116	0.0016171	-11.927	-0.49449	-0.0017848	0.0001327	0.0018007
0.118	-0.00026666	-13.889	-0.55947	-0.0018656	-9.1711e-05	0.0017898
0.12	-0.00064492	-15.84	-0.61897	-0.0019464	-0.00031613	0.0017789
0.122	0.00026363	-17.78	-0.67297	-0.0020272	-0.00054054	0.0017681
0.124	0.0018405	-19.71	-0.72698	-0.002108	-0.00076496	0.0017572
0.126	0.0031964	-21.63	-0.76962	-0.0018634	-0.00097108	0.0014961
0.128	0.0033849	-23.541	-0.81226	-0.0016189	-0.0011772	0.001235
0.13	0.001652	-25.444	-0.85	-0.0013744	-0.0013833	0.00097397
0.132	-0.0023372	-27.34	-0.88283	-0.0011298	-0.0015894	0.0007129
0.134	-0.008358	-29.23	-0.91567	-0.00088529	-0.0017955	0.00045182
0.136	-0.015614	-31.117	-0.9422	-0.00061646	-0.001887	0.00014897
0.138	-0.022871	-33	-0.96872	-0.00034764	-0.0019786	-0.00015387
0.14	-0.028722	-34.883	-0.99456	-7.8809e-05	-0.0020701	-0.00045672
0.142	-0.031925	-36.765	-1.0197	0.00019002	-0.0021616	-0.00075957
0.144	-0.031754	-38.649	-1.0448	0.00045885	-0.0022531	-0.0010624
0.146	-0.028255	-40.536	-1.0741	0.0004918	-0.0022317	-0.0011363
0.148	-0.022369	-42.428	-1.1033	0.00052476	-0.0022102	-0.0012101
0.15	-0.015851	-44.325	-1.137	0.00055772	-0.0021888	-0.0012839
0.152	-0.010991	-46.23	-1.1752	0.00059068	-0.0021674	-0.0013577
0.154	-0.010194	-48.142	-1.2134	0.00062364	-0.002146	-0.0014316
0.156	-0.015472	-50.064	-1.2637	0.00051652	-0.002062	-0.0012551
0.158	-0.027968	-51.994	-1.314	0.00040939	-0.0019781	-0.0010786
0.16	-0.047619	-53.935	-1.3705	0.00030227	-0.0018942	-0.00090206
0.162	-0.073015	-55.886	-1.4334	0.00019515	-0.0018102	-0.00072555
0.164	-0.10153	-57.847	-1.4962	8.8027e-05	-0.0017263	-0.00054904
0.166	-0.1297	-59.818	-1.5693	8.2183e-05	-0.0016	-0.00036897
0.168	-0.15375	-61.798	-1.6423	7.6339e-05	-0.0014738	-0.00018889
0.17	-0.17027	-63.787	-1.7182	7.0495e-05	-0.0013475	-8.8177e-06
0.172	-0.17679	-65.783	-1.7967	6.4651e-05	-0.0012213	0.00017126
0.174	-0.17223	-67.786	-1.8753	5.8807e-05	-0.001095	0.00035133
0.176	-0.15713	-69.793	-1.9535	0.00016299	-0.00092806	0.00034071
0.178	-0.13353	-71.804	-2.0318	0.00026717	-0.0007611	0.00033008
0.18	-0.10464	-73.815	-2.1071	0.00037135	-0.00059415	0.00031946
0.182	-0.074297	-75.826	-2.1795	0.00047554	-0.00042719	0.00030883
0.184	-0.046268	-77.833	-2.2519	0.00057972	-0.00026023	0.00029821
0.186	-0.023671	-79.836	-2.3151	0.00059759	-7.0878e-05	0.00015539
0.188	-0.0084774	-81.829	-2.3782	0.00061547	0.00011848	1.2577e-05
0.19	-0.00127	-83.814	-2.4363	0.00063335	0.00030783	-0.00013024
0.192	-0.0012618	-85.784	-2.4895	0.00065122	0.00049719	-0.00027305
0.194	-0.0065662	-87.74	-2.5426	0.0006691	0.00068654	-0.00041587
0.196	-0.014649	-89.676	-2.5882	0.00053582	0.00089449	-0.00052989
0.198	-0.022867	-91.594	-2.6337	0.00040255	0.0011024	-0.00064391
0.2	-0.028971	-93.488	-2.6776	0.00026927	0.0013104	-0.00075794
0.202	-0.031495	-95.359	-2.7198	0.000136	0.0015183	-0.00087196
0.204	-0.029939	-97.202	-2.762	2.7264e-06	0.0017263	-0.00098598
0.206	-0.024749	-99.018	-2.8059	-0.00013924	0.0019706	-0.00099204
0.208	-0.017098	-100.8	-2.8497	-0.00028121	0.0022148	-0.00099809
0.21	-0.0085415	-102.56	-2.8962	-0.00042318	0.0024591	-0.0010041
0.212	-0.00063131	-104.29	-2.9455	-0.00056515	0.0027034	-0.0010102
0.214	0.0054316	-105.98	-2.9947	-0.00070712	0.0029477	-0.0010163
0.216	0.0090246	-107.65	-3.0507	-0.00074656	0.0031572	-0.00090117
0.218	0.010179	-109.28	-3.1067	-0.00078601	0.0033667	-0.00078608
0.22	0.0094953	-110.88	-3.1653	-0.00082545	0.0035762	-0.00067099
0.222	0.0079419	-112.46	-3.2267	-0.0008649	0.0037857	-0.0005559
0.224	0.0065804	-114.01	-3.288	-0.00090434	0.0039952	-0.00044081
0.226	0.0062991	-115.53	-3.3512	-0.00084543	0.0039709	-0.0002319
0.228	0.0076118	-117.03	-3.4144	-0.00078652	0.0039466	-2.2997e-05
0.23	0.010564	-118.51	-3.4764	-0.00072762	0.0039223	0.00018591
0.232	0.014762	-119.98	-3.5371	-0.00066871	0.003898	0.00039481
0.234	0.019503	-121.43	-3.5979	-0.0006098	0.0038738	0.00060372
0.236	0.023975	-122.88	-3.6528	-0.00043914	0.00352	0.0007733
0.238	0.027466	-124.32	-3.7077	-0.00026848	0.0031663	0.00094287
0.24	0.029534	-125.76	-3.7591	-9.7822e-05	0.0028125	0.0011125
0.242	0.030102	-127.21	-3.807	7.2837e-05	0.0024588	0.001282
0.244	0.029447	-128.67	-3.8548	0.0002435	0.002105	0.0014516
0.246	0.028115	-130.13	-3.897	0.00053784	0.0016556	0.0014069
0.248	0.026767	-131.62	-3.9391	0.00083219	0.0012063	0.0013623
0.25	0.026004	-133.13	-3.9802	0.0011265	0.00075693	0.0013176
0.252	0.026228	-134.67	-4.0202	0.0014209	0.00030758	0.001273
0.254	0.027549	-136.25	-4.0602	0.0017152	-0.00014178	0.0012283
0.256	0.02978	-137.86	-4.1024	0.0019889	-0.00032542	0.00098036
0.258	0.032498	-139.5	-4.1447	0.0022626	-0.00050906	0.00073243
0.26	0.03517	-141.2	-4.1901	0.0025364	-0.0006927	0.0004845
0.262	0.037287	-142.94	-4.2387	0.0028101	-0.00087634	0.00023657
0.264	0.038495	-144.73	-4.2872	0.0030838	-0.00106	-1.136e-05
0.266	0.038674	-146.57	-4.3442	0.0031223	-0.00093319	-0.000218
0.268	0.037954	-148.47	-4.4011	0.0031607	-0.00080639	-0.00042464
0.27	0.036672	-150.43	-4.4623	0.0031992	-0.0006796	-0.00063127
0.272	0.035272	-152.44	-4.5278	0.0032377	-0.0005528	-0.00083791
0.274	0.034189	-154.51	-4.5932	0.0032762	-0.00042601	-0.0010445
0.276	0.03374	-156.63	-4.6651	0.0030891	-0.00033725	-0.0010275
0.278	0.03405	-158.81	-4.7371	0.002902	-0.0002485	-0.0010105
0.28	0.035029	-161.04	-4.8107	0.0027148	-0.00015974	-0.00099353
0.282	0.036408	-163.32	-4.886	0.0025277	-7.099e-05	-0.00097652
0.284	0.037815	-165.65	-4.9613	0.0023406	1.7765e-05	-0.00095951
0.286	0.038876	-168.02	-5.0365	0.0021971	-0.00026041	-0.00085436
0.288	0.039308	-170.42	-5.1118	0.0020537	-0.00053858	-0.00074921
0.29	0.038991	-172.87	-5.1855	0.0019102	-0.00081675	-0.00064405
0.292	0.037987	-175.33	-5.2576	0.0017668	-0.0010949	-0.0005389
0.294	0.036519	-177.82	-5.3297	0.0016233	-0.0013731	-0.00043375
0.296	0.034907	-180.31	-5.3959	0.0017068	-0.0019448	-0.0005004
0.298	0.03348	-182.82	-5.462	0.0017902	-0.0025165	-0.00056705
0.3	0.032495	-185.32	-5.5237	0.0018737	-0.0030882	-0.0006337
0.302	0.032075	-187.81	-5.581	0.0019572	-0.0036599	-0.00070035
0.304	0.032182	-190.28	-5.6382	0.0020406	-0.0042316	-0.000767
0.306	0.032637	-192.72	-5.6829	0.0021989	-0.0046926	-0.00098841
0.308	0.033167	-195.12	-5.7275	0.0023572	-0.0051535	-0.0012098
0.31	0.033484	-197.48	-5.7635	0.0025155	-0.0056145	-0.0014312
0.312	0.033352	-199.78	-5.7907	0.0026738	-0.0060754	-0.0016527
0.314	0.03265	-202.02	-5.818	0.0028321	-0.0065364	-0.0018741
0.316	0.031394	-204.18	-5.8224	0.0027888	-0.0065492	-0.0019432
0.318	0.029725	-206.26	-5.8268	0.0027455	-0.006562	-0.0020123
0.32	0.027873	-208.24	-5.817	0.0027023	-0.0065748	-0.0020814
0.322	0.026088	-210.13	-5.7931	0.002659	-0.0065876	-0.0021505
0.324	0.024584	-211.9	-5.7692	0.0026157	-0.0066004	-0.0022195
0.326	0.023479	-213.56	-5.7131	0.0023398	-0.0061918	-0.0019612
0.328	0.022779	-215.1	-5.6571	0.002064	-0.0057833	-0.0017028
0.33	0.022377	-216.51	-5.5844	0.0017882	-0.0053747	-0.0014444
0.332	0.022091	-217.78	-5.4952	0.0015123	-0.0049662	-0.001186
0.334	0.021711	-218.91	-5.406	0.0012365	-0.0045576	-0.00092757
0.336	0.02106	-219.89	-5.2863	0.00095849	-0.0040474	-0.00054936
0.338	0.020029	-220.72	-5.1665	0.00068051	-0.0035372	-0.00017115
0.34	0.018608	-221.4	-5.0346	0.00040253	-0.003027	0.00020706
0.342	0.016878	-221.92	-4.8904	0.00012455	-0.0025168	0.00058527
0.344	0.014983	-222.28	-4.7462	-0.00015343	-0.0020066	0.00096348
0.346	0.013089	-222.48	-4.5861	-0.00026656	-0.0016919	0.0011546
0.348	0.011335	-222.52	-4.4261	-0.00037969	-0.0013773	0.0013457
0.35	0.0098009	-222.39	-4.2628	-0.00049282	-0.0010627	0.0015368
0.352	0.0084852	-222.1	-4.0963	-0.00060595	-0.00074814	0.0017279
0.354	0.0073113	-221.65	-3.9298	-0.00071908	-0.00043353	0.001919
0.356	0.0061525	-221.04	-3.7654	-0.00073939	-0.00037732	0.0019117
0.358	0.0048699	-220.27	-3.6011	-0.00075971	-0.0003211	0.0019044
0.36	0.0033527	-219.34	-3.441	-0.00078002	-0.00026488	0.0018971
0.362	0.0015495	-218.26	-3.2851	-0.00080034	-0.00020866	0.0018898
0.364	-0.00051827	-217.03	-3.1293	-0.00082065	-0.00015245	0.0018825
0.366	-0.002762	-215.64	-2.9857	-0.00084666	-0.00023367	0.0018904
0.368	-0.0050514	-214.12	-2.842	-0.00087266	-0.00031489	0.0018982
0.37	-0.0072512	-212.45	-2.705	-0.00089866	-0.00039611	0.0019061
0.372	-0.0092578	-210.65	-2.5746	-0.00092466	-0.00047733	0.0019139
0.374	-0.011028	-208.71	-2.4441	-0.00095066	-0.00055855	0.0019218
0.376	-0.012591	-206.65	-2.326	-0.00087593	-0.00062714	0.0019854
0.378	-0.01404	-204.46	-2.2079	-0.0008012	-0.00069572	0.0020489
0.38	-0.015507	-202.15	-2.0949	-0.00072647	-0.00076431	0.0021125
0.382	-0.017126	-199.72	-1.9872	-0.00065175	-0.00083289	0.0021761
0.384	-0.018997	-197.18	-1.8794	-0.00057702	-0.00090148	0.0022397
0.386	-0.021158	-194.53	-1.7798	-0.00026299	-0.0008502	0.0021375
0.388	-0.023571	-191.78	-1.6803	5.1043e-05	-0.00079892	0.0020354
0.39	-0.026133	-188.93	-1.5837	0.00036507	-0.00074764	0.0019332
0.392	-0.0287	-185.97	-1.4902	0.0006791	-0.00069636	0.0018311
0.394	-0.031118	-182.92	-1.3967	0.00099313	-0.00064508	0.0017289
0.396	-0.033269	-179.78	-1.3074	0.0013629	-0.00042455	0.0013474
0.398	-0.035092	-176.55	-1.2181	0.0017327	-0.00020401	0.00096587
0.4	-0.036601	-173.23	-1.1302	0.0021025	1.652e-05	0.00058435
0.402	-0.037881	-169.83	-1.0436	0.0024723	0.00023705	0.00020283
0.404	-0.039061	-166.34	-0.95693	0.0028421	0.00045759	-0.00017868
0.406	-0.040282	-162.77	-0.87152	0.0028331	0.00077889	-0.00057991
0.408	-0.04166	-159.12	-0.7861	0.0028241	0.0011002	-0.00098115
0.41	-0.043258	-155.4	-0.7007	0.0028151	0.0014215	-0.0013824
0.412	-0.045064	-151.6	-0.61532	0.0028062	0.0017428	-0.0017836
0.414	-0.046998	-147.73	-0.52994	0.0027972	0.0020641	-0.0021848
0.416	-0.048931	-143.78	-0.44381	0.0022559	0.0022687	-0.0022396
0.418	-0.050713	-139.77	-0.35768	0.0017147	0.0024733	-0.0022944
0.42	-0.052213	-135.68	-0.27105	0.0011734	0.0026779	-0.0023491
0.422	-0.05335	-131.53	-0.1839	0.00063212	0.0028825	-0.0024039
0.424	-0.054107	-127.32	-0.096756	9.0861e-05	0.0030871	-0.0024586
0.426	-0.054539	-123.04	-0.0087744	-0.00056751	0.0029681	-0.0021495
0.428	-0.054751	-118.71	0.079208	-0.0012259	0.0028491	-0.0018403
0.43	-0.054876	-114.32	0.16742	-0.0018842	0.00273	-0.0015311
0.432	-0.055037	-109.88	0.25587	-0.0025426	0.002611	-0.001222
0.434	-0.05532	-105.38	0.34432	-0.003201	0.002492	-0.0009128
0.436	-0.055749	-100.84	0.43304	-0.0033943	0.0020996	-0.00059338
0.438	-0.056285	-96.256	0.52176	-0.0035877	0.0017071	-0.00027397
0.44	-0.056837	-91.634	0.61076	-0.003781	0.0013147	4.5452e-05
0.442	-0.057282	-86.976	0.70003	-0.0039744	0.00092223	0.00036487
0.444	-0.057499	-82.291	0.7893	-0.0041677	0.00052979	0.00068429
0.446	-0.057396	-77.579	0.87993	-0.0037565	0.00016433	0.00071991
0.448	-0.056931	-72.849	0.97056	-0.0033452	-0.00020112	0.00075554
0.45	-0.056121	-68.103	1.0624	-0.002934	-0.00056658	0.00079116
0.452	-0.055032	-63.351	1.1554	-0.0025228	-0.00093204	0.00082678
0.454	-0.053765	-58.593	1.2485	-0.0021115	-0.0012975	0.00086241
0.456	-0.052421	-53.842	1.3448	-0.0014841	-0.0013979	0.00068019
0.458	-0.051084	-49.096	1.441	-0.0008567	-0.0014983	0.00049797
0.46	-0.049794	-44.368	1.539	-0.00022929	-0.0015986	0.00031576
0.462	-0.048545	-39.658	1.6385	0.00039813	-0.001699	0.00013354
0.464	-0.047282	-34.977	1.7381	0.0010255	-0.0017994	-4.8679e-05
0.466	-0.045926	-30.325	1.84	0.0014147	-0.0016788	-0.00019859
0.468	-0.04439	-25.714	1.9419	0.001804	-0.0015581	-0.00034851
0.47	-0.042608	-21.143	2.044	0.0021932	-0.0014375	-0.00049843
0.472	-0.040551	-16.623	2.1465	0.0025824	-0.0013169	-0.00064834
0.474	-0.038241	-12.153	2.249	0.0029716	-0.0011963	-0.00079826
0.476	-0.035739	-7.7413	2.35	0.0030093	-0.0010448	-0.00080827
0.478	-0.033142	-3.3887	2.4511	0.0030471	-0.00089344	-0.00081828
0.48	-0.030553	0.89829	2.5507	0.0030849	-0.00074203	-0.00082829
0.482	-0.028064	5.1198	2.6488	0.0031226	-0.00059062	-0.00083831
0.484	-0.025733	9.271	2.747	0.0031604	-0.00043921	-0.00084832
0.486	-0.023577	13.352	2.8418	0.0030231	-0.00035811	-0.00079014
0.488	-0.021572	17.36	2.9366	0.0028857	-0.00027702	-0.00073196
0.49	-0.01966	21.296	3.0302	0.0027484	-0.00019592	-0.00067378
0.492	-0.017773	25.159	3.1226	0.0026111	-0.00011482	-0.0006156
0.494	-0.015847	28.949	3.2149	0.0024738	-3.3724e-05	-0.00055742
0.496	-0.013843	32.669	3.3064	0.0023263	-9.6881e-06	-0.00049328
0.498	-0.011759	36.318	3.3978	0.0021788	1.4348e-05	-0.00042914
0.5	-0.0096274	39.9	3.4895	0.0020313	3.8384e-05	-0.000365
0.502	-0.007508	43.417	3.5816	0.0018838	6.2419e-05	-0.00030085
0.504	-0.0054742	46.873	3.6736	0.0017363	8.6455e-05	-0.00023671
0.506	-0.0035936	50.27	3.7667	0.0016029	9.1213e-05	-0.00015382
0.508	-0.0019121	53.614	3.8597	0.0014695	9.5972e-05	-7.092e-05
0.51	-0.00044316	56.906	3.9529	0.0013362	0.00010073	1.1976e-05
0.512	0.0008344	60.155	4.0461	0.0012028	0.00010549	9.4871e-05
0.514	0.0019708	63.361	4.1393	0.0010694	0.00011025	0.00017777
0.516	0.0030326	66.533	4.2303	0.0009328	0.00015011	0.00026297
0.518	0.0040862	69.671	4.3213	0.00079619	0.00018997	0.00034818
0.52	0.0051833	72.786	4.4097	0.00065958	0.00022984	0.00043339
0.522	0.0063499	75.877	4.4957	0.00052297	0.0002697	0.00051859
0.524	0.0075816	78.953	4.5816	0.00038636	0.00030957	0.0006038
0.526	0.008847	82.015	4.66	0.00025148	0.00044829	0.00062961
0.528	0.010098	85.071	4.7385	0.0001166	0.00058702	0.00065542
0.53	0.01128	88.121	4.8128	-1.8278e-05	0.00072574	0.00068123
0.532	0.012349	91.171	4.883	-0.00015316	0.00086447	0.00070705
0.534	0.013277	94.222	4.9531	-0.00028804	0.0010032	0.00073286
0.536	0.01406	97.28	5.016	-0.00044155	0.0011977	0.00072698
0.538	0.014718	100.34	5.0789	-0.00059506	0.0013922	0.00072111
0.54	0.015282	103.42	5.1394	-0.00074858	0.0015866	0.00071523
0.542	0.015796	106.5	5.1976	-0.00090209	0.0017811	0.00070935
0.544	0.016296	109.59	5.2557	-0.0010556	0.0019756	0.00070348
0.546	0.016809	112.69	5.3122	-0.0012493	0.0020333	0.00079872
0.548	0.017348	115.8	5.3686	-0.001443	0.002091	0.00089397
0.55	0.01791	118.91	5.4253	-0.0016367	0.0021487	0.00098922
0.552	0.018479	122.03	5.4822	-0.0018304	0.0022064	0.0010845
0.554	0.019036	125.16	5.5392	-0.0020241	0.0022641	0.0011797
0.556	0.019561	128.28	5.5973	-0.002173	0.00205	0.0013895
0.558	0.020039	131.4	5.6554	-0.002322	0.0018359	0.0015993
0.56	0.020464	134.51	5.7133	-0.0024709	0.0016218	0.0018091
0.562	0.020832	137.6	5.7713	-0.0026198	0.0014077	0.002019
0.564	0.021148	140.68	5.8292	-0.0027687	0.0011936	0.0022288
0.566	0.021413	143.73	5.8844	-0.002718	0.00084982	0.0023207
0.568	0.021627	146.75	5.9397	-0.0026672	0.00050608	0.0024127
0.57	0.021786	149.75	5.9924	-0.0026164	0.00016233	0.0025047
0.572	0.021883	152.69	6.0424	-0.0025656	-0.00018142	0.0025967
0.574	0.021913	155.59	6.0924	-0.0025148	-0.00052516	0.0026886
0.576	0.021874	158.44	6.1358	-0.0022551	-0.00069051	0.0024577
0.578	0.021776	161.23	6.1791	-0.0019954	-0.00085585	0.0022267
0.58	0.021635	163.96	6.2192	-0.0017358	-0.0010212	0.0019958
0.582	0.021477	166.62	6.2561	-0.0014761	-0.0011865	0.0017649
0.584	0.021333	169.19	6.293	-0.0012164	-0.0013519	0.0015339
0.586	0.02123	171.7	6.3253	-0.00098051	-0.001191	0.0011411
0.588	0.021184	174.11	6.3575	-0.00074465	-0.00103	0.00074835
0.59	0.021197	176.44	6.3886	-0.00050879	-0.00086912	0.00035558
0.592	0.021256	178.68	6.4185	-0.00027293	-0.00070819	-3.7196e-05
0.594	0.021329	180.82	6.4484	-3.7063e-05	-0.00054727	-0.00042997
0.596	0.021376	182.86	6.4775	-7.5286e-05	-0.00019881	-0.00060603
0.598	0.021358	184.8	6.5066	-0.00011351	0.00014964	-0.00078208
0.6	0.021242	186.64	6.5352	-0.00015173	0.0004981	-0.00095814
0.602	0.021014	188.38	6.5631	-0.00018996	0.00084655	-0.0011342
0.604	0.020678	190.02	6.5911	-0.00022818	0.001195	-0.0013102
0.606	0.020261	191.55	6.6153	-0.00050661	0.0014835	-0.0011628
0.608	0.019802	192.98	6.6395	-0.00078505	0.0017719	-0.0010154
0.61	0.019346	194.31	6.6597	-0.0010635	0.0020604	-0.00086799
0.612	0.018933	195.55	6.676	-0.0013419	0.0023488	-0.00072057
0.614	0.018585	196.68	6.6922	-0.0016203	0.0026373	-0.00057316
0.616	0.018306	197.72	6.6962	-0.0018422	0.0027338	-0.0003969
0.618	0.018077	198.67	6.7001	-0.0020641	0.0028303	-0.00022065
0.62	0.017862	199.53	6.6965	-0.0022859	0.0029268	-4.4391e-05
0.622	0.017616	200.31	6.6852	-0.0025078	0.0030233	0.00013186
0.624	0.0173	201.01	6.674	-0.0027296	0.0031198	0.00030812
0.626	0.016888	201.63	6.6474	-0.0026865	0.0030667	0.00023358
0.628	0.016375	202.19	6.6209	-0.0026434	0.0030135	0.00015903
0.63	0.015782	202.67	6.5881	-0.0026003	0.0029604	8.449e-05
0.632	0.015151	203.09	6.5491	-0.0025571	0.0029072	9.9466e-06
