t	ekg	optical	pressure	accel_x	accel_y	accel_z
0	-0.068441	47.731	-7.8821	-0.0024398	0.00062904	0.0020991
0.002	-0.079451	47.575	-8.0045	-0.0024287	0.0004195	0.0020262
0.004	-0.084441	47.419	-8.1269	-0.0024176	0.00020997	0.0019533
0.006	-0.082897	47.263	-8.2492	-0.0024064	4.2761e-07	0.0018805
0.008	-0.076076	47.09	-8.3716	-0.0023953	-0.00020911	0.0018076
0.01	-0.066981	46.898	-8.4911	-0.0023842	-0.00041865	0.0017347
0.012	-0.059906	46.685	-8.6106	-0.0023731	-0.00062819	0.0016618
0.014	-0.059633	46.451	-8.728	-0.0023619	-0.00083772	0.0015889
0.016	-0.070429	46.193	-8.8433	-0.0023508	-0.0010473	0.001516
0.018	-0.09504	45.91	-8.9586	-0.0023397	-0.0012568	0.0014431
0.02	-0.13391	45.601	-9.0698	-0.0022986	-0.0013231	0.0012781
0.022	-0.18483	45.267	-9.181	-0.0022575	-0.0013894	0.001113
0.024	-0.24303	44.905	-9.291	-0.0022165	-0.0014557	0.00094794
0.026	-0.30188	44.517	-9.3997	-0.0021754	-0.0015221	0.00078289
0.028	-0.35393	44.103	-9.5085	-0.0021343	-0.0015884	0.00061783
0.03	-0.39216	43.662	-9.6174	-0.0020722	-0.0014257	0.00054796
0.032	-0.41128	43.197	-9.7262	-0.00201	-0.001263	0.00047808
0.034	-0.4086	42.707	-9.8366	-0.0019479	-0.0011004	0.00040821
0.036	-0.38461	42.195	-9.9484	-0.0018858	-0.00093772	0.00033833
0.038	-0.34283	41.662	-10.06	-0.0018236	-0.00077506	0.00026846
0.04	-0.28918	41.11	-10.177	-0.0017836	-0.00050771	0.00032093
0.042	-0.23095	40.54	-10.294	-0.0017435	-0.00024036	0.00037339
0.044	-0.17545	39.956	-10.414	-0.0017035	2.6992e-05	0.00042586
0.046	-0.12885	39.359	-10.538	-0.0016634	0.00029434	0.00047833
0.048	-0.09513	38.753	-10.661	-0.0016234	0.00056169	0.00053079
0.05	-0.075612	38.14	-10.79	-0.001654	0.00076333	0.00056079
0.052	-0.068974	37.524	-10.92	-0.0016847	0.00096497	0.00059078
0.054	-0.071766	36.906	-11.052	-0.0017153	0.0011666	0.00062078
0.056	-0.0793	36.291	-11.188	-0.001746	0.0013682	0.00065077
0.058	-0.086706	35.68	-11.323	-0.0017766	0.0015699	0.00068076
0.06	-0.089935	35.078	-11.464	-0.0018246	0.0015896	0.0005845
0.062	-0.086494	34.486	-11.605	-0.0018725	0.0016093	0.00048824
0.064	-0.075794	33.91	-11.748	-0.0019204	0.001629	0.00039198
0.066	-0.059061	33.348	-11.895	-0.0019683	0.0016487	0.00029572
0.068	-0.03886	32.807	-12.041	-0.0020162	0.0016684	0.00019946
0.07	-0.018386	32.287	-12.194	-0.0019507	0.0014975	5.9586e-05
0.072	-0.00066495	31.791	-12.346	-0.0018853	0.0013265	-8.0289e-05
0.074	0.012122	31.319	-12.502	-0.0018199	0.0011556	-0.00022016
0.076	0.019067	30.875	-12.662	-0.0017544	0.00098464	-0.00036004
0.078	0.020638	30.46	-12.821	-0.001689	0.00081369	-0.00049991
0.08	0.01845	30.074	-12.988	-0.0014835	0.00062213	-0.00054946
0.082	0.014789	29.718	-13.155	-0.0012781	0.00043057	-0.00059901
0.084	0.012022	29.393	-13.324	-0.0010727	0.000239	-0.00064857
0.086	0.01203	29.099	-13.496	-0.00086726	4.7441e-05	-0.00069812
0.088	0.015797	28.835	-13.668	-0.00066184	-0.00014412	-0.00074767
0.09	0.023251	28.601	-13.844	-0.00048175	-0.00010681	-0.00070481
0.092	0.033363	28.395	-14.02	-0.00030167	-6.95e-05	-0.00066195
0.094	0.044465	28.217	-14.197	-0.00012158	-3.219e-05	-0.00061909
0.096	0.054711	28.065	-14.374	5.8501e-05	5.1202e-06	-0.00057623
0.098	0.062532	27.938	-14.551	0.00023859	4.243e-05	-0.00053337
0.1	0.067007	27.831	-14.728	0.00020902	0.00033649	-0.00046737
0.102	0.068046	27.745	-14.906	0.00017945	0.00063056	-0.00040137
0.104	0.066355	27.674	-15.083	0.00014987	0.00092462	-0.00033537
0.106	0.063216	27.619	-15.261	0.0001203	0.0012187	-0.00026938
0.108	0.060132	27.573	-15.44	9.0733e-05	0.0015127	-0.00020338
0.11	0.058449	27.536	-15.621	-0.00011228	0.0017472	-0.0001033
0.112	0.059032	27.501	-15.802	-0.00031528	0.0019816	-3.2291e-06
0.114	0.062087	27.469	-15.987	-0.00051829	0.0022161	9.6847e-05
0.116	0.067148	27.433	-16.175	-0.0007213	0.0024505	0.00019692
0.118	0.07324	27.392	-16.362	-0.00092431	0.0026849	0.000297
0.12	0.079153	27.34	-16.559	-0.0010574	0.002512	0.00047403
0.122	0.083759	27.276	-16.755	-0.0011905	0.002339	0.00065107
0.124	0.086293	27.195	-16.955	-0.0013236	0.002166	0.00082811
0.126	0.086523	27.097	-17.159	-0.0014567	0.001993	0.0010051
0.128	0.084782	26.975	-17.363	-0.0015898	0.00182	0.0011822
0.13	0.081853	26.829	-17.569	-0.001482	0.0013004	0.0013493
0.132	0.078749	26.656	-17.775	-0.0013741	0.00078086	0.0015164
0.134	0.076447	26.454	-17.979	-0.0012662	0.00026127	0.0016835
0.136	0.075647	26.221	-18.18	-0.0011583	-0.00025832	0.0018506
0.138	0.07661	25.957	-18.38	-0.0010504	-0.00077791	0.0020177
0.14	0.079117	25.658	-18.567	-0.0007994	-0.001156	0.0019709
0.142	0.082553	25.326	-18.753	-0.00054836	-0.0015341	0.001924
0.144	0.086077	24.961	-18.929	-0.00029732	-0.0019122	0.0018772
0.146	0.088853	24.561	-19.095	-4.6283e-05	-0.0022903	0.0018303
0.148	0.090255	24.129	-19.26	0.00020476	-0.0026684	0.0017834
0.15	0.090017	23.664	-19.403	0.00037293	-0.0025076	0.0014298
0.152	0.088276	23.17	-19.546	0.0005411	-0.0023469	0.0010762
0.154	0.085514	22.647	-19.68	0.00070927	-0.0021862	0.0007226
0.156	0.082417	22.099	-19.804	0.00087744	-0.0020255	0.00036899
0.158	0.079684	21.528	-19.928	0.0010456	-0.0018648	1.5373e-05
0.16	0.077845	20.939	-20.04	0.0010413	-0.0013472	-0.00043759
0.162	0.077134	20.333	-20.151	0.0010371	-0.00082969	-0.00089056
0.164	0.077442	19.718	-20.259	0.0010328	-0.00031213	-0.0013435
0.166	0.078361	19.093	-20.362	0.0010285	0.00020543	-0.0017965
0.168	0.079305	18.47	-20.465	0.0010242	0.00072298	-0.0022495
0.17	0.079674	17.848	-20.554	0.00093429	0.0010165	-0.0024264
0.172	0.079011	17.237	-20.644	0.00084433	0.00131	-0.0026033
0.174	0.077118	16.639	-20.718	0.00075437	0.0016035	-0.0027802
0.176	0.074101	16.064	-20.776	0.00066441	0.001897	-0.0029571
0.178	0.070331	15.512	-20.834	0.00057446	0.0021905	-0.0031341
0.18	0.066339	14.997	-20.827	0.00050445	0.0019598	-0.0028933
0.182	0.062675	14.518	-20.82	0.00043445	0.001729	-0.0026525
0.184	0.059764	14.087	-20.758	0.00036445	0.0014983	-0.0024117
0.186	0.057799	13.705	-20.642	0.00029444	0.0012676	-0.0021709
0.188	0.0567	13.383	-20.526	0.00022444	0.0010368	-0.0019301
0.19	0.056144	13.123	-20.253	0.00018617	0.00058963	-0.0015619
0.192	0.055654	12.934	-19.979	0.00014791	0.00014242	-0.0011938
0.194	0.05473	12.818	-19.607	0.00010964	-0.0003048	-0.00082559
0.196	0.052976	12.784	-19.136	7.1376e-05	-0.00075201	-0.00045743
0.198	0.050201	12.833	-18.665	3.311e-05	-0.0011992	-8.926e-05
0.2	0.046461	12.974	-17.973	-5.2772e-05	-0.0013717	1.7733e-05
0.202	0.042038	13.207	-17.281	-0.00013865	-0.0015441	0.00012473
0.204	0.037359	13.539	-16.479	-0.00022454	-0.0017165	0.00023172
0.206	0.032884	13.97	-15.568	-0.00031042	-0.001889	0.00033871
0.208	0.028984	14.506	-14.657	-0.0003963	-0.0020614	0.00044571
0.21	0.025854	15.147	-13.554	-0.00060607	-0.0018744	0.00027972
0.212	0.023466	15.896	-12.452	-0.00081583	-0.0016873	0.00011374
0.214	0.021586	16.752	-11.278	-0.0010256	-0.0015003	-5.2237e-05
0.216	0.019839	17.718	-10.032	-0.0012354	-0.0013133	-0.00021822
0.218	0.017815	18.792	-8.7872	-0.0014451	-0.0011263	-0.0003842
0.22	0.015174	19.974	-7.4604	-0.0017136	-0.00091422	-0.00048688
0.222	0.011734	21.263	-6.1336	-0.001982	-0.00070214	-0.00058956
0.224	0.0075137	22.655	-4.797	-0.0022504	-0.00049006	-0.00069224
0.226	0.0027201	24.151	-3.4506	-0.0025188	-0.00027798	-0.00079493
0.228	-0.0023053	25.744	-2.1042	-0.0027872	-6.59e-05	-0.00089761
0.23	-0.0071787	27.435	-0.79144	-0.0029274	-8.3715e-05	-0.00073704
0.232	-0.011572	29.215	0.52137	-0.0030676	-0.00010153	-0.00057646
0.234	-0.015292	31.084	1.7983	-0.0032078	-0.00011934	-0.00041589
0.236	-0.018325	33.031	3.0395	-0.003348	-0.00013716	-0.00025532
0.238	-0.020825	35.058	4.2807	-0.0034882	-0.00015497	-9.4747e-05
0.24	-0.023071	37.152	5.4286	-0.0034419	-0.00026883	0.00013189
0.242	-0.025384	39.313	6.5765	-0.0033956	-0.00038268	0.00035852
0.244	-0.028035	41.529	7.6738	-0.0033493	-0.00049654	0.00058515
0.246	-0.031176	43.799	8.7205	-0.003303	-0.0006104	0.00081178
0.248	-0.034796	46.11	9.7672	-0.0032568	-0.00072425	0.0010384
0.25	-0.038727	48.462	10.713	-0.0032063	-0.00066049	0.0010474
0.252	-0.042686	50.841	11.659	-0.0031558	-0.00059673	0.0010565
0.254	-0.046355	53.246	12.557	-0.0031054	-0.00053297	0.0010655
0.256	-0.049456	55.664	13.406	-0.0030549	-0.00046921	0.0010745
0.258	-0.05183	58.095	14.255	-0.0030045	-0.00040544	0.0010835
0.26	-0.053473	60.526	15.01	-0.0030773	-0.0001659	0.00094702
0.262	-0.054537	62.956	15.766	-0.0031501	7.3654e-05	0.00081054
0.264	-0.055289	65.373	16.475	-0.0032229	0.0003132	0.00067406
0.266	-0.056047	67.776	17.137	-0.0032957	0.00055275	0.00053758
0.268	-0.057092	70.156	17.8	-0.0033685	0.0007923	0.00040109
0.27	-0.058604	72.51	18.372	-0.0033636	0.00091269	0.00048628
0.272	-0.060616	74.83	18.943	-0.0033586	0.0010331	0.00057147
0.274	-0.063005	77.116	19.47	-0.0033537	0.0011535	0.00065666
0.276	-0.065529	79.36	19.952	-0.0033488	0.0012738	0.00074185
0.278	-0.067883	81.56	20.434	-0.0033438	0.0013942	0.00082704
0.28	-0.069773	83.712	20.834	-0.0030067	0.0011861	0.0012711
0.282	-0.070988	85.814	21.233	-0.0026695	0.00097806	0.0017151
0.284	-0.071445	87.863	21.596	-0.0023324	0.00076997	0.0021591
0.286	-0.071202	89.858	21.922	-0.0019952	0.00056188	0.0026032
0.288	-0.070434	91.797	22.248	-0.001658	0.00035379	0.0030472
0.29	-0.069387	93.679	22.513	-0.0011594	-2.9257e-05	0.00349
0.292	-0.06831	95.504	22.778	-0.00066074	-0.00041231	0.0039328
0.294	-0.067388	97.271	23.02	-0.0001621	-0.00079536	0.0043756
0.296	-0.066702	98.98	23.237	0.00033655	-0.0011784	0.0048183
0.298	-0.066207	100.63	23.455	0.0008352	-0.0015615	0.0052611
0.3	-0.065748	102.23	23.635	0.0010121	-0.0017512	0.0052423
0.302	-0.065106	103.77	23.816	0.001189	-0.0019409	0.0052234
0.304	-0.064051	105.25	23.981	0.0013659	-0.0021306	0.0052046
0.306	-0.062408	106.69	24.131	0.0015428	-0.0023203	0.0051857
0.308	-0.060098	108.07	24.281	0.0017197	-0.00251	0.0051669
0.31	-0.057162	109.4	24.403	0.0014034	-0.002301	0.0046659
0.312	-0.053754	110.68	24.526	0.0010871	-0.0020921	0.0041649
0.314	-0.050106	111.91	24.633	0.00077081	-0.0018832	0.0036639
0.316	-0.046474	113.1	24.727	0.00045452	-0.0016743	0.003163
0.318	-0.043088	114.24	24.821	0.00013823	-0.0014653	0.002662
0.32	-0.040098	115.34	24.883	-0.00031376	-0.0010081	0.0020915
0.322	-0.037552	116.39	24.946	-0.00076576	-0.00055081	0.001521
0.324	-0.035397	117.41	24.992	-0.0012177	-9.3535e-05	0.00095048
0.326	-0.033494	118.37	25.022	-0.0016697	0.00036374	0.00037997
0.328	-0.031667	119.3	25.052	-0.0021217	0.00082101	-0.00019054
0.33	-0.029744	120.19	25.049	-0.0023037	0.0011934	-0.0004548
0.332	-0.027605	121.03	25.046	-0.0024857	0.0015659	-0.00071906
0.334	-0.025204	121.83	25.027	-0.0026677	0.0019383	-0.00098332
0.336	-0.022582	122.59	24.993	-0.0028497	0.0023108	-0.0012476
0.338	-0.019846	123.3	24.959	-0.0030317	0.0026832	-0.0015118
0.34	-0.017146	123.96	24.897	-0.0029266	0.0027781	-0.0014564
0.342	-0.014631	124.58	24.834	-0.0028214	0.002873	-0.001401
0.344	-0.012416	125.15	24.76	-0.0027163	0.0029679	-0.0013456
0.346	-0.010554	125.66	24.672	-0.0026111	0.0030628	-0.0012902
0.348	-0.0090301	126.12	24.585	-0.002506	0.0031577	-0.0012347
0.35	-0.0077676	126.53	24.475	-0.0023411	0.0030356	-0.0010971
0.352	-0.0066517	126.88	24.365	-0.0021761	0.0029135	-0.00095954
0.354	-0.0055607	127.17	24.243	-0.0020112	0.0027915	-0.00082194
0.356	-0.0043972	127.4	24.111	-0.0018463	0.0026694	-0.00068433
0.358	-0.0031108	127.56	23.978	-0.0016813	0.0025473	-0.00054673
0.36	-0.0017086	127.65	23.822	-0.0015582	0.0023563	-0.00051104
0.362	-0.00024986	127.68	23.665	-0.001435	0.0021652	-0.00047534
0.364	0.0011708	127.64	23.496	-0.0013119	0.0019742	-0.00043964
0.366	0.0024495	127.53	23.314	-0.0011888	0.0017832	-0.00040395
0.368	0.0035002	127.34	23.131	-0.0010656	0.0015921	-0.00036825
0.37	0.0042766	127.08	22.92	-0.00089667	0.0014191	-0.00043438
0.372	0.004783	126.75	22.709	-0.0007277	0.0012461	-0.00050051
0.374	0.0050739	126.35	22.483	-0.00055873	0.0010731	-0.00056664
0.376	0.0052404	125.87	22.241	-0.00038975	0.00090012	-0.00063277
0.378	0.0053899	125.32	21.999	-0.00022078	0.00072711	-0.0006989
0.38	0.0056202	124.71	21.726	4.0208e-05	0.00064308	-0.00079923
0.382	0.0059981	124.02	21.453	0.0003012	0.00055904	-0.00089957
0.384	0.0065445	123.27	21.165	0.00056219	0.00047501	-0.00099991
0.386	0.0072311	122.46	20.861	0.00082317	0.00039097	-0.0011002
0.388	0.007986	121.59	20.557	0.0010842	0.00030694	-0.0012006
0.39	0.0087111	120.66	20.225	0.0013208	0.00038665	-0.0013289
0.392	0.0093037	119.68	19.893	0.0015574	0.00046636	-0.0014573
0.394	0.0096806	118.65	19.549	0.0017941	0.00054607	-0.0015856
0.396	0.0097965	117.58	19.193	0.0020307	0.00062578	-0.0017139
0.398	0.0096572	116.48	18.837	0.0022673	0.00070549	-0.0018423
0.4	0.0093211	115.34	18.463	0.0023744	0.00087549	-0.002007
0.402	0.0088918	114.17	18.089	0.0024814	0.0010455	-0.0021717
0.404	0.0085006	112.99	17.709	0.0025884	0.0012155	-0.0023364
0.406	0.0082842	111.79	17.324	0.0026955	0.0013855	-0.0025011
0.408	0.0083598	110.59	16.938	0.0028025	0.0015555	-0.0026658
0.41	0.0088037	109.37	16.549	0.0028572	0.001563	-0.0027837
0.412	0.0096366	108.17	16.16	0.0029119	0.0015705	-0.0029016
0.414	0.010817	106.97	15.773	0.0029666	0.001578	-0.0030195
0.416	0.012246	105.78	15.389	0.0030214	0.0015855	-0.0031375
0.418	0.013788	104.61	15.004	0.0030761	0.001593	-0.0032554
0.42	0.015286	103.47	14.631	0.003203	0.0013014	-0.003201
0.422	0.016598	102.35	14.259	0.0033299	0.0010098	-0.0031466
0.424	0.017617	101.27	13.896	0.0034569	0.00071823	-0.0030922
0.426	0.018295	100.21	13.542	0.0035838	0.00042664	-0.0030379
0.428	0.01865	99.2	13.189	0.0037107	0.00013505	-0.0029835
0.43	0.018768	98.223	12.86	0.0038585	-0.00022875	-0.0027674
0.432	0.018778	97.289	12.531	0.0040063	-0.00059256	-0.0025514
0.434	0.018836	96.396	12.216	0.0041541	-0.00095637	-0.0023354
0.436	0.019084	95.545	11.916	0.0043019	-0.0013202	-0.0021194
0.438	0.019626	94.737	11.616	0.0044496	-0.001684	-0.0019033
0.44	0.020504	93.97	11.348	0.0044748	-0.0017421	-0.0017357
0.442	0.021686	93.244	11.08	0.0045	-0.0018002	-0.001568
0.444	0.023075	92.555	10.83	0.0045252	-0.0018583	-0.0014003
0.446	0.024529	91.904	10.598	0.0045503	-0.0019164	-0.0012327
0.448	0.025895	91.284	10.366	0.0045755	-0.0019745	-0.001065
0.45	0.027045	90.696	10.172	0.0045036	-0.0016404	-0.0011563
0.452	0.027906	90.132	9.978	0.0044317	-0.0013062	-0.0012476
0.454	0.028478	89.593	9.8048	0.0043598	-0.00097202	-0.0013389
0.456	0.02884	89.069	9.6523	0.0042879	-0.00063785	-0.0014302
0.458	0.029129	88.561	9.4998	0.004216	-0.00030367	-0.0015215
0.46	0.029508	88.059	9.3911	0.0042274	0.00010438	-0.0018135
0.462	0.030127	87.563	9.2823	0.0042388	0.00051243	-0.0021055
0.464	0.03108	87.064	9.196	0.0042502	0.00092048	-0.0023975
0.466	0.032382	86.562	9.1323	0.0042616	0.0013285	-0.0026895
0.468	0.033958	86.047	9.0685	0.0042729	0.0017366	-0.0029815
0.47	0.035657	85.52	9.049	0.0044192	0.0018531	-0.0031736
0.472	0.037285	84.972	9.0295	0.0045654	0.0019696	-0.0033657
0.474	0.038653	84.403	9.0305	0.0047116	0.0020862	-0.0035578
0.476	0.039622	83.806	9.0521	0.0048578	0.0022027	-0.0037499
0.478	0.040142	83.182	9.0736	0.005004	0.0023192	-0.0039419
0.48	0.04027	82.524	9.1301	0.005108	0.0021359	-0.0038495
0.482	0.040155	81.834	9.1866	0.005212	0.0019526	-0.0037571
0.484	0.040011	81.107	9.2565	0.005316	0.0017692	-0.0036647
0.486	0.040061	80.344	9.3398	0.00542	0.0015859	-0.0035723
0.488	0.040483	79.543	9.4231	0.005524	0.0014026	-0.0034799
0.49	0.04136	78.705	9.5238	0.0054116	0.001243	-0.0032728
0.492	0.042655	77.831	9.6244	0.0052993	0.0010834	-0.0030656
0.494	0.044216	76.921	9.7291	0.0051869	0.00092384	-0.0028585
0.496	0.045805	75.978	9.8377	0.0050745	0.00076425	-0.0026514
0.498	0.047161	75.002	9.9464	0.0049621	0.00060466	-0.0024443
0.5	0.048056	73.999	10.055	0.0046619	0.00071465	-0.0024149
0.502	0.048362	72.968	10.163	0.0043617	0.00082463	-0.0023856
0.504	0.048082	71.917	10.269	0.0040615	0.00093462	-0.0023562
0.506	0.047358	70.846	10.371	0.0037613	0.0010446	-0.0023268
0.508	0.046436	69.762	10.474	0.0034611	0.0011546	-0.0022975
0.51	0.045608	68.667	10.566	0.0031126	0.0014234	-0.00245
0.512	0.04514	67.568	10.658	0.0027642	0.0016922	-0.0026025
0.514	0.045199	66.467	10.743	0.0024157	0.0019611	-0.0027551
0.516	0.04581	65.372	10.823	0.0020673	0.0022299	-0.0029076
0.518	0.046839	64.284	10.902	0.0017188	0.0024987	-0.0030601
0.52	0.048026	63.212	10.966	0.0014051	0.0026338	-0.0030852
0.522	0.049041	62.156	11.031	0.0010914	0.0027689	-0.0031104
0.524	0.049575	61.124	11.087	0.00077767	0.002904	-0.0031355
0.526	0.04941	60.117	11.135	0.00046395	0.003039	-0.0031606
0.528	0.048489	59.142	11.183	0.00015023	0.0031741	-0.0031858
0.53	0.046925	58.198	11.212	-9.0404e-05	0.0030526	-0.0028742
0.532	0.044987	57.293	11.241	-0.00033103	0.0029311	-0.0025626
0.534	0.043028	56.425	11.259	-0.00057166	0.0028096	-0.002251
0.536	0.041397	55.599	11.267	-0.00081229	0.002688	-0.0019394
0.538	0.040345	54.815	11.274	-0.0010529	0.0025665	-0.0016278
0.54	0.039955	54.076	11.257	-0.0011587	0.0023109	-0.0011674
0.542	0.040114	53.38	11.24	-0.0012645	0.0020553	-0.00070707
0.544	0.040532	52.728	11.21	-0.0013702	0.0017997	-0.00024668
0.546	0.040814	52.121	11.167	-0.001476	0.0015441	0.0002137
0.548	0.04056	51.556	11.124	-0.0015818	0.0012884	0.00067408
0.55	0.039476	51.032	11.056	-0.0015217	0.0010585	0.00092238
0.552	0.037455	50.547	10.988	-0.0014616	0.00082856	0.0011707
0.554	0.034622	50.101	10.909	-0.0014016	0.00059862	0.001419
0.556	0.031313	49.687	10.818	-0.0013415	0.00036868	0.0016673
0.558	0.028005	49.306	10.728	-0.0012814	0.00013875	0.0019156
0.56	0.025193	48.951	10.62	-0.0011073	-1.4415e-05	0.0018638
0.562	0.023272	48.622	10.511	-0.00093322	-0.00016758	0.001812
0.564	0.02242	48.312	10.397	-0.00075913	-0.00032074	0.0017601
0.566	0.022549	48.02	10.275	-0.00058504	-0.0004739	0.0017083
0.568	0.023304	47.739	10.154	-0.00041096	-0.00062706	0.0016565
0.57	0.024148	47.469	10.023	-0.00019208	-0.00071187	0.0015707
0.572	0.024486	47.201	9.893	2.6799e-05	-0.00079669	0.0014849
0.574	0.023814	46.936	9.759	0.00024568	-0.0008815	0.0013992
0.576	0.021857	46.666	9.6214	0.00046455	-0.00096631	0.0013134
0.578	0.018652	46.391	9.4839	0.00068343	-0.0010511	0.0012276
0.58	0.014556	46.104	9.3387	0.00090255	-0.0010716	0.0013689
0.582	0.010176	45.807	9.1935	0.0011217	-0.001092	0.0015101
0.584	0.0062386	45.492	9.0432	0.0013408	-0.0011124	0.0016514
0.586	0.0034141	45.16	8.8877	0.0015599	-0.0011329	0.0017927
0.588	0.0021617	44.807	8.7323	0.001779	-0.0011533	0.001934
0.59	0.002615	44.432	8.5634	0.001931	-0.0011397	0.0022572
0.592	0.0045494	44.035	8.3944	0.0020829	-0.0011261	0.0025804
0.594	0.0074372	43.613	8.2175	0.0022349	-0.0011125	0.0029036
0.596	0.010582	43.167	8.0326	0.0023868	-0.0010989	0.0032268
0.598	0.013297	42.696	7.8476	0.0025388	-0.0010853	0.00355
0.6	0.015085	42.202	7.6465	0.0025529	-0.001127	0.0038303
0.602	0.015772	41.683	7.4453	0.002567	-0.0011686	0.0041107
0.604	0.015559	41.142	7.2372	0.0025812	-0.0012103	0.004391
0.606	0.014975	40.579	7.0221	0.0025953	-0.001252	0.0046713
0.608	0.014739	39.997	6.807	0.0026094	-0.0012937	0.0049516
0.61	0.01557	39.396	6.5822	0.0025342	-0.0014647	0.0050999
0.612	0.017983	38.78	6.3574	0.002459	-0.0016357	0.0052483
0.614	0.022127	38.149	6.1302	0.0023838	-0.0018067	0.0053966
0.616	0.027722	37.508	5.9005	0.0023086	-0.0019776	0.0055449
0.618	0.034092	36.855	5.6708	0.0022334	-0.0021486	0.0056932
0.62	0.040309	36.197	5.4395	0.0022488	-0.0023601	0.0057992
0.622	0.04541	35.534	5.2081	0.0022642	-0.0025715	0.0059051
0.624	0.04863	34.868	4.9761	0.0022796	-0.0027829	0.0060111
0.626	0.049602	34.201	4.7436	0.002295	-0.0029943	0.006117
0.628	0.048453	33.537	4.511	0.0023104	-0.0032058	0.006223
0.63	0.045795	32.876	4.2746	0.0025051	-0.0031987	0.0063066
0.632	0.042575	32.22	4.0382	0.0026997	-0.0031917	0.0063903
0.634	0.039853	31.57	3.7975	0.0028944	-0.0031847	0.0064739
0.636	0.038532	30.928	3.5526	0.0030891	-0.0031777	0.0065576
0.638	0.039125	30.294	3.3077	0.0032838	-0.0031707	0.0066412
0.64	0.041619	29.668	3.0495	0.0034372	-0.0028008	0.0065266
0.642	0.045462	29.052	2.7914	0.0035907	-0.0024309	0.0064121
0.644	0.049696	28.445	2.5255	0.0037441	-0.002061	0.0062975
0.646	0.053195	27.846	2.2517	0.0038976	-0.0016911	0.0061829
0.648	0.05496	27.255	1.978	0.0040511	-0.0013212	0.0060683
