t	ekg	optical	pressure	accel_x	accel_y	accel_z
2.8422e-14	-0.01376	66.747	39.341	-0.00077754	0.0033276	0.00081098
0.002	-0.010708	66.61	39.067	-0.00062227	0.0031802	0.0008656
0.004	-0.0082632	66.472	38.792	-0.00046701	0.0030327	0.00092021
0.006	-0.0063815	66.335	38.518	-0.00031175	0.0028853	0.00097483
0.008	-0.004911	66.151	38.209	-0.00015649	0.0027379	0.0010295
0.01	-0.0036271	65.921	37.9	-1.2232e-06	0.0025905	0.0010841
0.012	-0.0022869	65.656	37.578	0.00015404	0.0024431	0.0011387
0.014	-0.00068749	65.355	37.244	0.0003093	0.0022957	0.0011933
0.016	0.0012861	65.03	36.909	0.00046456	0.0021483	0.0012479
0.018	0.0036333	64.681	36.561	0.00060728	0.0016513	0.0011366
0.02	0.0062393	64.316	36.212	0.00075	0.0011542	0.0010253
0.022	0.0089034	63.937	35.863	0.00089272	0.00065719	0.00091394
0.024	0.011387	63.55	35.512	0.0010354	0.00016014	0.00080261
0.026	0.013472	63.157	35.162	0.0011782	-0.0003369	0.00069128
0.028	0.015013	62.764	34.821	0.0012491	-0.00074881	0.00049814
0.03	0.015972	62.371	34.479	0.00132	-0.0011607	0.000305
0.032	0.016431	61.981	34.145	0.001391	-0.0015726	0.00011186
0.034	0.016572	61.596	33.818	0.0014619	-0.0019845	-8.1279e-05
0.036	0.016637	61.216	33.491	0.0015328	-0.0023964	-0.00027442
0.038	0.016873	60.842	33.178	0.0015169	-0.0023896	-0.00040276
0.04	0.017476	60.473	32.866	0.0015009	-0.0023828	-0.00053109
0.042	0.018546	60.11	32.558	0.001485	-0.002376	-0.00065943
0.044	0.020067	59.75	32.255	0.001469	-0.0023692	-0.00078777
0.046	0.02191	59.392	31.952	0.0014531	-0.0023624	-0.0009161
0.048	0.023863	59.032	31.65	0.0013817	-0.0020243	-0.00091957
0.05	0.025681	58.67	31.349	0.0013104	-0.0016862	-0.00092303
0.052	0.027142	58.299	31.043	0.0012391	-0.0013481	-0.00092649
0.054	0.028098	57.92	30.734	0.0011677	-0.00101	-0.00092995
0.056	0.028506	57.526	30.424	0.0010964	-0.00067189	-0.00093342
0.058	0.028442	57.115	30.098	0.0010216	-0.00037233	-0.00088155
0.06	0.028079	56.681	29.772	0.00094674	-7.2769e-05	-0.00082969
0.062	0.02765	56.222	29.434	0.00087193	0.00022679	-0.00077782
0.064	0.027392	55.732	29.083	0.00079712	0.00052635	-0.00072596
0.066	0.027495	55.21	28.732	0.0007223	0.00082591	-0.0006741
0.068	0.028058	54.649	28.351	0.00067214	0.00084757	-0.00066905
0.07	0.029066	54.048	27.969	0.00062197	0.00086923	-0.000664
0.072	0.030392	53.403	27.57	0.00057181	0.00089089	-0.00065896
0.074	0.031832	52.712	27.152	0.00052164	0.00091255	-0.00065391
0.076	0.033144	51.972	26.735	0.00047147	0.00093421	-0.00064886
0.078	0.034109	51.183	26.278	0.00043527	0.00077826	-0.00071909
0.08	0.034582	50.342	25.822	0.00039906	0.0006223	-0.00078932
0.082	0.034519	49.451	25.345	0.00036286	0.00046634	-0.00085954
0.084	0.033995	48.508	24.848	0.00032665	0.00031038	-0.00092977
0.086	0.033183	47.514	24.351	0.00029045	0.00015442	-0.001
0.088	0.032317	46.473	23.817	0.00024658	3.7828e-05	-0.0011192
0.09	0.03164	45.384	23.282	0.00020271	-7.8764e-05	-0.0012383
0.092	0.031346	44.253	22.732	0.00015884	-0.00019536	-0.0013575
0.094	0.031541	43.081	22.167	0.00011497	-0.00031195	-0.0014767
0.096	0.032215	41.876	21.602	7.1106e-05	-0.00042854	-0.0015958
0.098	0.033248	40.637	21.018	7.6458e-06	-0.00047215	-0.0017443
0.1	0.034436	39.375	20.434	-5.5815e-05	-0.00051576	-0.0018928
0.102	0.035539	38.091	19.849	-0.00011927	-0.00055937	-0.0020413
0.104	0.036336	36.797	19.261	-0.00018274	-0.00060298	-0.0021898
0.106	0.036675	35.492	18.674	-0.0002462	-0.00064658	-0.0023383
0.108	0.036507	34.191	18.099	-0.00032822	-0.00071414	-0.0024701
0.11	0.035896	32.894	17.525	-0.00041025	-0.00078169	-0.0026018
0.112	0.035	31.614	16.966	-0.00049227	-0.00084924	-0.0027336
0.114	0.034032	30.352	16.421	-0.0005743	-0.0009168	-0.0028653
0.116	0.033212	29.122	15.876	-0.00065633	-0.00098435	-0.0029971
0.118	0.032704	27.925	15.374	-0.00073424	-0.0010614	-0.0030139
0.12	0.032583	26.772	14.872	-0.00081216	-0.0011384	-0.0030307
0.122	0.032814	25.665	14.395	-0.00089008	-0.0012154	-0.0030475
0.124	0.033257	24.616	13.945	-0.000968	-0.0012925	-0.0030643
0.126	0.033702	23.624	13.494	-0.0010459	-0.0013695	-0.0030812
0.128	0.033917	22.7	13.1	-0.0010899	-0.0013367	-0.0029487
0.13	0.033706	21.844	12.705	-0.0011339	-0.0013039	-0.0028163
0.132	0.032951	21.063	12.339	-0.0011778	-0.0012711	-0.0026839
0.134	0.031645	20.357	12.002	-0.0012218	-0.0012383	-0.0025514
0.136	0.029888	19.731	11.665	-0.0012658	-0.0012055	-0.002419
0.138	0.02787	19.186	11.385	-0.0012707	-0.001066	-0.0022505
0.14	0.025819	18.722	11.104	-0.0012756	-0.0009265	-0.0020821
0.142	0.023955	18.34	10.852	-0.0012805	-0.00078702	-0.0019136
0.144	0.022439	18.038	10.626	-0.0012853	-0.00064754	-0.0017451
0.146	0.021339	17.817	10.401	-0.0012902	-0.00050807	-0.0015766
0.148	0.020625	17.673	10.229	-0.0012562	-0.00044495	-0.0014933
0.15	0.020183	17.605	10.058	-0.0012222	-0.00038184	-0.0014101
0.152	0.019853	17.606	9.9115	-0.0011882	-0.00031873	-0.0013268
0.154	0.019474	17.676	9.7912	-0.0011542	-0.00025561	-0.0012435
0.156	0.018928	17.807	9.6708	-0.0011202	-0.0001925	-0.0011602
0.158	0.018166	17.998	9.599	-0.0010197	-0.0003444	-0.0011243
0.16	0.017214	18.238	9.5271	-0.00091914	-0.00049629	-0.0010883
0.162	0.016154	18.528	9.4774	-0.0008186	-0.00064819	-0.0010524
0.164	0.015088	18.855	9.4497	-0.00071806	-0.00080009	-0.0010165
0.166	0.014096	19.218	9.422	-0.00061752	-0.00095198	-0.00098052
0.168	0.013201	19.607	9.4326	-0.0004377	-0.0012227	-0.00087922
0.17	0.012354	20.02	9.4431	-0.00025788	-0.0014934	-0.00077792
0.172	0.011443	20.445	9.4691	-7.8065e-05	-0.0017641	-0.00067662
0.174	0.01033	20.881	9.5106	0.00010175	-0.0020348	-0.00057532
0.176	0.0089014	21.318	9.5521	0.00028157	-0.0023056	-0.00047403
0.178	0.0071276	21.756	9.6169	0.00048769	-0.0024887	-0.00033641
0.18	0.0051013	22.183	9.6817	0.0006938	-0.0026718	-0.00019879
0.182	0.0030517	22.599	9.7546	0.00089992	-0.0028549	-6.1177e-05
0.184	0.0013199	22.997	9.8356	0.001106	-0.0030381	7.6439e-05
0.186	0.00029993	23.376	9.9165	0.0013122	-0.0032212	0.00021406
0.188	0.00035529	23.729	10.007	0.001463	-0.0032603	0.00022129
0.19	0.0017312	24.056	10.098	0.0016138	-0.0032994	0.00022853
0.192	0.0044833	24.354	10.192	0.0017647	-0.0033385	0.00023577
0.194	0.008444	24.621	10.288	0.0019155	-0.0033776	0.00024301
0.196	0.013239	24.857	10.383	0.0020663	-0.0034168	0.00025025
0.198	0.018354	25.06	10.48	0.0021068	-0.0033958	8.3855e-05
0.2	0.023237	25.232	10.576	0.0021473	-0.0033748	-8.2538e-05
0.202	0.027419	25.372	10.671	0.0021878	-0.0033538	-0.00024893
0.204	0.030619	25.482	10.764	0.0022282	-0.0033329	-0.00041532
0.206	0.032807	25.563	10.858	0.0022687	-0.0033119	-0.00058172
0.208	0.034213	25.619	10.943	0.0021721	-0.0032119	-0.00071737
0.21	0.035266	25.649	11.029	0.0020755	-0.0031119	-0.00085303
0.212	0.036491	25.66	11.108	0.001979	-0.0030119	-0.00098869
0.214	0.038365	25.65	11.182	0.0018824	-0.0029119	-0.0011243
0.216	0.041192	25.627	11.255	0.0017858	-0.002812	-0.00126
0.218	0.045008	25.59	11.312	0.0015706	-0.0025034	-0.0011552
0.22	0.049559	25.545	11.369	0.0013554	-0.0021948	-0.0010505
0.222	0.054345	25.493	11.416	0.0011401	-0.0018863	-0.00094573
0.224	0.058741	25.44	11.453	0.00092493	-0.0015777	-0.00084097
0.226	0.062147	25.386	11.489	0.00070972	-0.0012692	-0.00073622
0.228	0.064145	25.337	11.503	0.00049515	-0.00081532	-0.00044589
0.23	0.064622	25.292	11.517	0.00028058	-0.00036145	-0.00015556
0.232	0.06381	25.257	11.519	6.6013e-05	9.241e-05	0.00013477
0.234	0.062253	25.231	11.509	-0.00014856	0.00054627	0.0004251
0.236	0.060678	25.217	11.499	-0.00036312	0.0010001	0.00071543
0.238	0.059825	25.217	11.464	-0.00039811	0.0012551	0.0009387
0.24	0.060253	25.23	11.43	-0.0004331	0.00151	0.001162
0.242	0.06219	25.258	11.383	-0.00046809	0.0017649	0.0013853
0.244	0.065453	25.3	11.324	-0.00050308	0.0020198	0.0016085
0.246	0.069477	25.357	11.264	-0.00053807	0.0022747	0.0018318
0.248	0.073435	25.427	11.181	-0.00034557	0.0020707	0.0017891
0.25	0.07644	25.51	11.098	-0.00015306	0.0018666	0.0017464
0.252	0.077765	25.603	11.002	3.9446e-05	0.0016626	0.0017037
0.254	0.077041	25.706	10.894	0.00023195	0.0014585	0.001661
0.256	0.074364	25.816	10.786	0.00042446	0.0012545	0.0016183
0.258	0.070298	25.931	10.654	0.00066175	0.00073536	0.0013042
0.26	0.065746	26.048	10.522	0.00089904	0.00021624	0.00099001
0.262	0.061736	26.167	10.378	0.0011363	-0.00030288	0.00067585
0.264	0.059157	26.281	10.223	0.0013736	-0.000822	0.00036169
0.266	0.058514	26.392	10.067	0.0016109	-0.0013411	4.753e-05
0.268	0.05978	26.493	9.8899	0.0016863	-0.0017912	-0.0003438
0.27	0.062364	26.585	9.7127	0.0017617	-0.0022412	-0.00073513
0.272	0.065232	26.663	9.5264	0.001837	-0.0026913	-0.0011265
0.274	0.067152	26.727	9.3309	0.0019124	-0.0031413	-0.0015178
0.276	0.066996	26.773	9.1353	0.0019877	-0.0035913	-0.0019091
0.278	0.064045	26.8	8.9252	0.0019365	-0.0037315	-0.002072
0.28	0.058201	26.806	8.715	0.0018853	-0.0038716	-0.0022349
0.282	0.050049	26.79	8.4995	0.001834	-0.0040117	-0.0023977
0.284	0.040753	26.751	8.2786	0.0017828	-0.0041518	-0.0025606
0.286	0.031789	26.688	8.0576	0.0017316	-0.0042919	-0.0027234
0.288	0.024579	26.601	7.8287	0.0017478	-0.0041668	-0.002467
0.29	0.020118	26.491	7.5997	0.0017641	-0.0040416	-0.0022105
0.292	0.018683	26.358	7.3673	0.0017803	-0.0039165	-0.001954
0.294	0.019711	26.201	7.1315	0.0017965	-0.0037913	-0.0016975
0.296	0.021882	26.024	6.8957	0.0018128	-0.0036662	-0.001441
0.298	0.023418	25.827	6.6525	0.0019299	-0.0034632	-0.00091488
0.3	0.022512	25.612	6.4093	0.002047	-0.0032602	-0.00038875
0.302	0.017817	25.379	6.1616	0.0021641	-0.0030572	0.00013738
0.304	0.0088468	25.134	5.9095	0.0022812	-0.0028542	0.00066351
0.306	-0.0038047	24.875	5.6574	0.0023983	-0.0026512	0.0011896
0.308	-0.018506	24.608	5.3946	0.0024361	-0.002514	0.0015754
0.31	-0.032906	24.333	5.1318	0.0024739	-0.0023767	0.0019612
0.312	-0.044478	24.054	4.8632	0.0025118	-0.0022395	0.002347
0.314	-0.051172	23.772	4.5888	0.0025496	-0.0021023	0.0027328
0.316	-0.052032	23.491	4.3144	0.0025874	-0.0019651	0.0031185
0.318	-0.047627	23.212	4.0285	0.0024516	-0.001929	0.0030891
0.32	-0.040161	22.938	3.7425	0.0023158	-0.0018929	0.0030597
0.322	-0.033216	22.669	3.4513	0.00218	-0.0018568	0.0030303
0.324	-0.031141	22.409	3.1548	0.0020441	-0.0018207	0.0030009
0.326	-0.038194	22.158	2.8582	0.0019083	-0.0017846	0.0029715
0.328	-0.057596	21.917	2.5524	0.0017756	-0.0018239	0.0026661
0.33	-0.090706	21.687	2.2466	0.0016429	-0.0018632	0.0023608
0.332	-0.13649	21.468	1.9365	0.0015102	-0.0019025	0.0020554
0.334	-0.19142	21.261	1.6221	0.0013775	-0.0019418	0.0017501
0.336	-0.24989	21.065	1.3077	0.0012448	-0.0019811	0.0014448
0.338	-0.305	20.879	0.98474	0.0013371	-0.0020489	0.0012342
0.34	-0.3497	20.702	0.66173	0.0014294	-0.0021166	0.0010237
0.342	-0.37798	20.533	0.33407	0.0015216	-0.0021844	0.0008131
0.344	-0.38592	20.37	0.001762	0.0016139	-0.0022521	0.00060254
0.346	-0.37242	20.212	-0.33055	0.0017061	-0.0023199	0.00039199
0.348	-0.33937	20.056	-0.67266	0.0019445	-0.0023211	0.00045149
0.35	-0.29134	19.9	-1.0148	0.0021828	-0.0023223	0.000511
0.352	-0.23477	19.741	-1.3614	0.0024212	-0.0023234	0.0005705
0.354	-0.17686	19.579	-1.7127	0.0026596	-0.0023246	0.00063001
0.356	-0.12436	19.408	-2.0639	0.0028979	-0.0023258	0.00068951
0.358	-0.082435	19.228	-2.4218	0.0029175	-0.002131	0.00084721
0.36	-0.053983	19.035	-2.7796	0.0029372	-0.0019362	0.0010049
0.362	-0.0393	18.828	-3.1386	0.0029568	-0.0017413	0.0011626
0.364	-0.036311	18.604	-3.4988	0.0029765	-0.0015465	0.0013203
0.366	-0.041205	18.361	-3.859	0.0029961	-0.0013517	0.001478
0.368	-0.049348	18.097	-4.2162	0.0025607	-0.00093095	0.0014778
0.37	-0.056273	17.813	-4.5735	0.0021253	-0.00051019	0.0014776
0.372	-0.058544	17.505	-4.9268	0.0016899	-8.943e-05	0.0014773
0.374	-0.054323	17.173	-5.2761	0.0012546	0.00033133	0.0014771
0.376	-0.043556	16.818	-5.6255	0.00081918	0.00075209	0.0014769
0.378	-0.027764	16.439	-5.9637	0.00013191	0.0012408	0.0012478
0.38	-0.0095152	16.037	-6.3018	-0.00055536	0.0017295	0.0010186
0.382	0.0082657	15.613	-6.6339	-0.0012426	0.0022181	0.00078946
0.384	0.023008	15.168	-6.96	-0.0019299	0.0027068	0.00056032
0.386	0.03305	14.703	-7.286	-0.0026172	0.0031955	0.00033117
0.388	0.037937	14.223	-7.6011	-0.0031184	0.0035433	-4.6306e-05
0.39	0.038414	13.726	-7.9163	-0.0036196	0.003891	-0.00042378
0.392	0.036137	13.219	-8.2272	-0.0041208	0.0042388	-0.00080126
0.394	0.033206	12.702	-8.534	-0.004622	0.0045865	-0.0011787
0.396	0.031617	12.181	-8.8408	-0.0051232	0.0049343	-0.0015562
0.398	0.0328	11.657	-9.1418	-0.0052133	0.0050846	-0.0019587
0.4	0.03732	11.135	-9.4428	-0.0053035	0.0052349	-0.0023612
0.402	0.04481	10.617	-9.7418	-0.0053937	0.0053852	-0.0027636
0.404	0.05413	10.109	-10.039	-0.0054838	0.0055355	-0.0031661
0.406	0.063714	9.6117	-10.336	-0.005574	0.0056858	-0.0035686
0.408	0.071978	9.1315	-10.629	-0.0053627	0.0057084	-0.0037813
0.41	0.077719	8.6685	-10.922	-0.0051515	0.005731	-0.0039941
0.412	0.080383	8.2285	-11.214	-0.0049402	0.0057536	-0.0042068
0.414	0.080161	7.8115	-11.503	-0.004729	0.0057762	-0.0044196
0.416	0.077898	7.422	-11.793	-0.0045177	0.0057987	-0.0046323
0.418	0.074836	7.0601	-12.078	-0.0042083	0.0056972	-0.0043904
0.42	0.072288	6.7285	-12.364	-0.0038989	0.0055957	-0.0041486
0.422	0.071306	6.4273	-12.647	-0.0035895	0.0054941	-0.0039067
0.424	0.072437	6.1572	-12.93	-0.0032801	0.0053926	-0.0036648
0.426	0.07562	5.9184	-13.212	-0.0029707	0.005291	-0.0034229
0.428	0.080241	5.7095	-13.493	-0.002685	0.0049771	-0.002741
0.43	0.085321	5.5306	-13.773	-0.0023992	0.0046632	-0.0020591
0.432	0.089787	5.3783	-14.054	-0.0021135	0.0043493	-0.0013772
0.434	0.092752	5.2527	-14.335	-0.0018277	0.0040354	-0.00069528
0.436	0.093728	5.1485	-14.615	-0.001542	0.0037215	-1.3376e-05
0.438	0.092731	5.0657	-14.897	-0.0013479	0.0032068	0.00062185
0.44	0.090248	4.9975	-15.178	-0.0011538	0.0026921	0.0012571
0.442	0.08709	4.944	-15.458	-0.00095969	0.0021774	0.0018923
0.444	0.08416	4.8971	-15.738	-0.0007656	0.0016627	0.0025275
0.446	0.08222	4.8568	-16.018	-0.00057151	0.0011479	0.0031628
0.448	0.081698	4.8146	-16.293	-0.00048147	0.00064245	0.0032213
0.45	0.082588	4.7706	-16.567	-0.00039144	0.00013696	0.0032799
0.452	0.084472	4.716	-16.836	-0.00030141	-0.00036854	0.0033385
0.454	0.086642	4.651	-17.1	-0.00021137	-0.00087403	0.0033971
0.456	0.088296	4.5677	-17.363	-0.00012134	-0.0013795	0.0034557
0.458	0.08875	4.466	-17.61	-3.2343e-05	-0.0016292	0.0030154
0.46	0.087611	4.3395	-17.857	5.6653e-05	-0.0018788	0.002575
0.462	0.08487	4.1882	-18.095	0.00014565	-0.0021284	0.0021347
0.464	0.080898	4.0074	-18.323	0.00023464	-0.002378	0.0016944
0.466	0.076333	3.7972	-18.55	0.00032364	-0.0026277	0.0012541
0.468	0.071917	3.5556	-18.758	0.00053294	-0.0025478	0.00094423
0.47	0.068296	3.2824	-18.966	0.00074224	-0.0024678	0.00063437
0.472	0.065863	2.9784	-19.163	0.00095153	-0.0023879	0.00032451
0.474	0.064665	2.6438	-19.35	0.0011608	-0.002308	1.4647e-05
0.476	0.064398	2.2822	-19.537	0.0013701	-0.0022281	-0.00029521
0.478	0.064497	1.8938	-19.699	0.0016213	-0.0019213	-0.0001034
0.48	0.064289	1.4857	-19.86	0.0018724	-0.0016144	8.8421e-05
0.482	0.063167	1.0576	-20	0.0021236	-0.0013076	0.00028024
0.484	0.060741	0.61987	-20.119	0.0023747	-0.0010008	0.00047205
0.486	0.056936	0.17236	-20.239	0.0026259	-0.00069392	0.00066387
0.488	0.051997	-0.27215	-20.284	0.0026313	-0.00028656	0.00099278
0.49	0.046423	-0.71365	-20.329	0.0026368	0.00012081	0.0013217
0.492	0.040831	-1.1372	-20.312	0.0026422	0.00052817	0.0016506
0.494	0.035795	-1.5428	-20.233	0.0026477	0.00093554	0.0019795
0.496	0.031705	-1.914	-20.154	0.0026532	0.0013429	0.0023084
0.498	0.028672	-2.2507	-19.884	0.0022268	0.0017703	0.002195
0.5	0.026506	-2.5359	-19.615	0.0018004	0.0021977	0.0020816
0.502	0.024776	-2.7696	-19.214	0.001374	0.0026251	0.0019682
0.504	0.022928	-2.9347	-18.682	0.00094762	0.0030526	0.0018547
0.506	0.020425	-3.0312	-18.149	0.00052124	0.00348	0.0017413
0.508	0.016887	-3.0434	-17.287	-0.00015688	0.0038349	0.0011637
0.51	0.012181	-2.9711	-16.425	-0.00083501	0.0041899	0.00058609
0.512	0.0064551	-2.8005	-15.376	-0.0015131	0.0045448	8.4693e-06
0.514	8.6259e-05	-2.5316	-14.14	-0.0021913	0.0048997	-0.00056915
0.516	-0.0064124	-2.1534	-12.904	-0.0028694	0.0052547	-0.0011468
0.518	-0.012525	-1.666	-11.283	-0.0034117	0.0054411	-0.0016684
0.52	-0.017859	-1.0619	-9.6614	-0.0039541	0.0056275	-0.0021901
0.522	-0.022236	-0.34106	-7.8624	-0.0044964	0.0058139	-0.0027117
0.524	-0.025727	0.49962	-5.8859	-0.0050388	0.0060002	-0.0032334
0.526	-0.028616	1.4602	-3.9094	-0.0055811	0.0061866	-0.003755
0.528	-0.031322	2.5393	-1.6481	-0.0057851	0.0062195	-0.0038426
0.53	-0.034277	3.737	0.61307	-0.005989	0.0062523	-0.0039302
0.532	-0.037812	5.0471	2.9657	-0.006193	0.0062851	-0.0040178
0.534	-0.042071	6.4697	5.4098	-0.006397	0.0063179	-0.0041054
0.536	-0.046975	7.9941	7.8538	-0.0066009	0.0063507	-0.004193
0.538	-0.052244	9.6202	10.362	-0.0065519	0.0063447	-0.0039922
0.54	-0.057474	11.333	12.871	-0.0065028	0.0063386	-0.0037914
0.542	-0.062241	13.133	15.353	-0.0064538	0.0063325	-0.0035906
0.544	-0.066207	15	17.809	-0.0064047	0.0063264	-0.0033898
0.546	-0.06921	16.935	20.265	-0.0063557	0.0063203	-0.0031889
0.548	-0.071293	18.916	22.567	-0.0061587	0.0062873	-0.0030211
0.55	-0.072692	20.943	24.869	-0.0059618	0.0062543	-0.0028532
0.552	-0.073769	22.991	27.058	-0.0057648	0.0062213	-0.0026854
0.554	-0.074918	25.062	29.134	-0.0055678	0.0061883	-0.0025175
0.556	-0.076456	27.128	31.21	-0.0053709	0.0061553	-0.0023496
0.558	-0.078547	29.191	33.019	-0.0049767	0.0059256	-0.002235
0.56	-0.081158	31.225	34.828	-0.0045824	0.0056959	-0.0021203
0.562	-0.084072	33.23	36.497	-0.0041882	0.0054663	-0.0020056
0.564	-0.086939	35.181	38.028	-0.003794	0.0052366	-0.001891
0.566	-0.08937	37.079	39.558	-0.0033997	0.0050069	-0.0017763
0.568	-0.091028	38.901	40.82	-0.0027982	0.004473	-0.0015035
0.57	-0.091711	40.647	42.083	-0.0021967	0.003939	-0.0012306
0.572	-0.091395	42.297	43.223	-0.0015952	0.0034051	-0.00095777
0.574	-0.090232	43.852	44.241	-0.00099367	0.0028712	-0.00068492
0.576	-0.088505	45.295	45.26	-0.00039216	0.0023372	-0.00041207
0.578	-0.086546	46.628	46.062	0.00018288	0.0016924	4.1893e-05
0.58	-0.084655	47.837	46.864	0.00075791	0.0010475	0.00049586
0.582	-0.083019	48.925	47.571	0.0013329	0.00040264	0.00094983
0.584	-0.081669	49.883	48.183	0.001908	-0.00024223	0.0014038
0.586	-0.080483	50.711	48.795	0.002483	-0.00088709	0.0018578
0.588	-0.079219	51.409	49.239	0.0027487	-0.0013071	0.0022234
0.59	-0.077591	51.975	49.682	0.0030143	-0.001727	0.002589
0.592	-0.075347	52.414	50.05	0.00328	-0.002147	0.0029546
0.594	-0.072344	52.724	50.342	0.0035456	-0.0025669	0.0033203
0.596	-0.068586	52.914	50.634	0.0038113	-0.0029869	0.0036859
0.598	-0.064233	52.983	50.788	0.0037845	-0.0030744	0.0037291
0.6	-0.059559	52.943	50.942	0.0037577	-0.003162	0.0037723
0.602	-0.054895	52.793	51.033	0.003731	-0.0032495	0.0038155
0.604	-0.050541	52.549	51.063	0.0037042	-0.003337	0.0038587
0.606	-0.046702	52.21	51.092	0.0036774	-0.0034245	0.0039019
0.608	-0.043442	51.792	51.012	0.0036425	-0.0033852	0.0036898
0.61	-0.040672	51.297	50.931	0.0036075	-0.0033458	0.0034778
0.612	-0.038184	50.741	50.803	0.0035725	-0.0033065	0.0032658
0.614	-0.035709	50.126	50.627	0.0035376	-0.0032671	0.0030537
0.616	-0.03299	49.469	50.452	0.0035026	-0.0032278	0.0028417
0.618	-0.029851	48.771	50.197	0.0036342	-0.0032834	0.0026381
0.62	-0.026244	48.049	49.942	0.0037657	-0.0033391	0.0024344
0.622	-0.022259	47.305	49.655	0.0038972	-0.0033947	0.0022308
0.624	-0.018104	46.553	49.337	0.0040287	-0.0034504	0.0020272
0.626	-0.014047	45.794	49.018	0.0041602	-0.003506	0.0018236
0.628	-0.010351	45.042	48.65	0.0043277	-0.0036189	0.001816
0.63	-0.0072059	44.298	48.281	0.0044953	-0.0037317	0.0018084
0.632	-0.0046811	43.573	47.894	0.0046628	-0.0038446	0.0018008
0.634	-0.0027132	42.866	47.489	0.0048303	-0.0039574	0.0017932
0.636	-0.0011231	42.186	47.083	0.0049978	-0.0040703	0.0017856
0.638	0.00033606	41.533	46.651	0.0049732	-0.0040471	0.0019511
0.64	0.001914	40.912	46.219	0.0049487	-0.0040239	0.0021166
0.642	0.0038011	40.321	45.778	0.0049242	-0.0040007	0.0022822
0.644	0.0060823	39.764	45.329	0.0048996	-0.0039775	0.0024477
0.646	0.0087183	39.238	44.88	0.0048751	-0.0039542	0.0026132
0.648	0.011561	38.743	44.423	0.0046461	-0.0037747	0.0027873
