t	ekg	optical	pressure	accel_x	accel_y	accel_z
0	0.036375	33.99	-8.213	0.0018149	0.0024741	-0.0046865
0.002	0.030874	33.817	-7.1427	0.0015748	0.0022235	-0.0047445
0.004	0.024902	33.645	-6.0724	0.0013346	0.0019728	-0.0048025
0.006	0.018729	33.508	-5.0021	0.0010945	0.0017222	-0.0048605
0.008	0.012659	33.407	-3.9318	0.00085437	0.0014715	-0.0049184
0.01	0.0069579	33.34	-2.8525	0.00061424	0.0012209	-0.0049764
0.012	0.0017895	33.306	-1.7641	0.00037412	0.00097024	-0.0050344
0.014	-0.0028141	33.304	-0.67569	0.00013399	0.0007196	-0.0050924
0.016	-0.006952	33.332	0.3699	-1.4797e-05	0.00059646	-0.0049931
0.018	-0.010822	33.388	1.4155	-0.00016358	0.00047332	-0.0048939
0.02	-0.014664	33.47	2.4169	-0.00031237	0.00035017	-0.0047947
0.022	-0.018702	33.574	3.3742	-0.00046116	0.00022703	-0.0046955
0.024	-0.023087	33.701	4.3315	-0.00060995	0.00010389	-0.0045962
0.026	-0.027865	33.845	5.1746	-0.00089873	0.00025719	-0.0045361
0.028	-0.032975	34.005	6.0177	-0.0011875	0.00041048	-0.0044759
0.03	-0.038267	34.177	6.7999	-0.0014763	0.00056378	-0.0044157
0.032	-0.043544	34.361	7.5211	-0.0017651	0.00071707	-0.0043555
0.034	-0.048607	34.552	8.2423	-0.0020539	0.00087037	-0.0042953
0.036	-0.053302	34.749	8.8462	-0.0026993	0.0011372	-0.0043982
0.038	-0.057548	34.948	9.4501	-0.0033447	0.001404	-0.004501
0.04	-0.061348	35.148	10	-0.0039901	0.0016708	-0.0046039
0.042	-0.064778	35.346	10.496	-0.0046355	0.0019377	-0.0047067
0.044	-0.067963	35.541	10.992	-0.0052809	0.0022045	-0.0048095
0.046	-0.071046	35.73	11.389	-0.0060386	0.0022825	-0.0049948
0.048	-0.074157	35.912	11.786	-0.0067964	0.0023605	-0.00518
0.05	-0.07739	36.086	12.137	-0.0075541	0.0024385	-0.0053652
0.052	-0.080791	36.251	12.441	-0.0083119	0.0025165	-0.0055505
0.054	-0.084356	36.404	12.746	-0.0090697	0.0025945	-0.0057357
0.056	-0.088041	36.546	12.961	-0.0093485	0.0023725	-0.0058378
0.058	-0.091774	36.676	13.177	-0.0096274	0.0021505	-0.0059399
0.06	-0.095468	36.794	13.351	-0.0099063	0.0019286	-0.006042
0.062	-0.099029	36.898	13.483	-0.010185	0.0017066	-0.0061441
0.064	-0.10237	36.989	13.615	-0.010464	0.0014846	-0.0062462
0.066	-0.10539	37.067	13.673	-0.0099948	0.0011434	-0.0061889
0.068	-0.10802	37.131	13.731	-0.0095255	0.00080208	-0.0061317
0.07	-0.1102	37.183	13.759	-0.0090561	0.00046081	-0.0060745
0.072	-0.11187	37.221	13.758	-0.0085868	0.00011954	-0.0060173
0.074	-0.11302	37.247	13.757	-0.0081175	-0.00022174	-0.0059601
0.076	-0.11367	37.26	13.714	-0.0073266	-0.00046726	-0.005791
0.078	-0.11389	37.261	13.672	-0.0065356	-0.00071278	-0.0056219
0.08	-0.11378	37.25	13.619	-0.0057447	-0.0009583	-0.0054528
0.082	-0.11345	37.227	13.555	-0.0049537	-0.0012038	-0.0052837
0.084	-0.11304	37.193	13.491	-0.0041628	-0.0014494	-0.0051146
0.086	-0.11262	37.147	13.42	-0.0037459	-0.0015999	-0.0049445
0.088	-0.11222	37.089	13.349	-0.003329	-0.0017505	-0.0047743
0.09	-0.11183	37.021	13.279	-0.0029121	-0.001901	-0.0046042
0.092	-0.11133	36.94	13.21	-0.0024952	-0.0020516	-0.004434
0.094	-0.11059	36.848	13.141	-0.0020783	-0.0022021	-0.0042639
0.096	-0.10942	36.744	13.077	-0.002261	-0.0023364	-0.004201
0.098	-0.10768	36.627	13.013	-0.0024436	-0.0024707	-0.0041381
0.1	-0.1053	36.498	12.95	-0.0026263	-0.002605	-0.0040752
0.102	-0.10228	36.356	12.888	-0.002809	-0.0027394	-0.0040123
0.104	-0.098742	36.2	12.825	-0.0029916	-0.0028737	-0.0039494
0.106	-0.094884	36.03	12.762	-0.003313	-0.0028737	-0.0040242
0.108	-0.090956	35.846	12.698	-0.0036344	-0.0028738	-0.0040989
0.11	-0.087208	35.646	12.633	-0.0039557	-0.0028739	-0.0041737
0.112	-0.083835	35.431	12.566	-0.0042771	-0.002874	-0.0042484
0.114	-0.080932	35.2	12.5	-0.0045985	-0.0028741	-0.0043231
0.116	-0.078473	34.952	12.432	-0.004439	-0.0025452	-0.0044449
0.118	-0.076316	34.688	12.365	-0.0042794	-0.0022164	-0.0045667
0.12	-0.074236	34.407	12.299	-0.0041199	-0.0018875	-0.0046885
0.122	-0.071983	34.109	12.236	-0.0039604	-0.0015587	-0.0048102
0.124	-0.069337	33.794	12.173	-0.0038009	-0.0012298	-0.004932
0.126	-0.066174	33.463	12.12	-0.0030427	-0.00068125	-0.004962
0.128	-0.062489	33.115	12.068	-0.0022844	-0.00013269	-0.0049919
0.13	-0.058409	32.752	12.023	-0.0015262	0.00041587	-0.0050218
0.132	-0.05416	32.373	11.986	-0.00076791	0.00096443	-0.0050518
0.134	-0.050019	31.981	11.948	-9.6469e-06	0.001513	-0.0050817
0.136	-0.046243	31.576	11.927	0.00089346	0.0018733	-0.0049543
0.138	-0.043009	31.159	11.905	0.0017966	0.0022337	-0.0048269
0.14	-0.040372	30.732	11.889	0.0026997	0.002594	-0.0046994
0.142	-0.038252	30.298	11.879	0.0036028	0.0029543	-0.004572
0.144	-0.036452	29.856	11.869	0.0045059	0.0033147	-0.0044446
0.146	-0.034716	29.411	11.862	0.0050444	0.0032332	-0.0041933
0.148	-0.032792	28.963	11.855	0.0055829	0.0031517	-0.003942
0.15	-0.030499	28.516	11.845	0.0061215	0.0030702	-0.0036908
0.152	-0.02778	28.07	11.831	0.00666	0.0029887	-0.0034395
0.154	-0.024717	27.63	11.818	0.0071985	0.0029072	-0.0031882
0.156	-0.021511	27.197	11.789	0.0072578	0.0025429	-0.0028867
0.158	-0.018437	26.774	11.761	0.0073171	0.0021786	-0.0025852
0.16	-0.015768	26.363	11.722	0.0073764	0.0018143	-0.0022837
0.162	-0.013702	25.968	11.672	0.0074357	0.00145	-0.0019821
0.164	-0.012311	25.588	11.622	0.007495	0.0010857	-0.0016806
0.166	-0.011509	25.229	11.548	0.007292	0.00077895	-0.0014004
0.168	-0.011075	24.891	11.474	0.007089	0.00047218	-0.0011203
0.17	-0.010697	24.577	11.386	0.006886	0.00016542	-0.0008401
0.172	-0.010053	24.287	11.286	0.0066829	-0.00014135	-0.00055994
0.174	-0.0088926	24.024	11.185	0.0064799	-0.00044812	-0.00027977
0.176	-0.007098	23.788	11.058	0.0062188	-0.00048891	-7.0402e-05
0.178	-0.0047232	23.582	10.93	0.0059576	-0.0005297	0.00013897
0.18	-0.001983	23.404	10.789	0.0056965	-0.00057049	0.00034834
0.182	0.00079698	23.255	10.634	0.0054353	-0.00061128	0.00055771
0.184	0.0032601	23.136	10.478	0.0051742	-0.00065207	0.00076709
0.186	0.0051073	23.046	10.294	0.0049075	-0.00041749	0.00089714
0.188	0.0061749	22.984	10.11	0.0046407	-0.00018292	0.0010272
0.19	0.0064807	22.949	9.9115	0.004374	5.1658e-05	0.0011573
0.192	0.0062241	22.941	9.6986	0.0041072	0.00028623	0.0012873
0.194	0.0057411	22.955	9.4857	0.0038404	0.00052081	0.0014174
0.196	0.005424	22.993	9.2465	0.003613	0.00089463	0.0014786
0.198	0.0056248	23.048	9.0074	0.0033856	0.0012685	0.0015398
0.2	0.0065667	23.123	8.7583	0.0031582	0.0016423	0.001601
0.202	0.0082862	23.21	8.4993	0.0029308	0.0020161	0.0016622
0.204	0.01062	23.309	8.2403	0.0027033	0.0023899	0.0017234
0.206	0.013244	23.415	7.9721	0.0026446	0.0026701	0.0017121
0.208	0.01575	23.527	7.7038	0.0025858	0.0029503	0.0017008
0.21	0.017746	23.638	7.4376	0.002527	0.0032305	0.0016894
0.212	0.018958	23.748	7.1736	0.0024683	0.0035107	0.0016781
0.214	0.019298	23.85	6.9096	0.0024095	0.0037908	0.0016668
0.216	0.018888	23.945	6.6641	0.0026105	0.0037654	0.0016002
0.218	0.018036	24.024	6.4186	0.0028116	0.0037401	0.0015337
0.22	0.017159	24.088	6.1886	0.0030126	0.0037147	0.0014671
0.222	0.016682	24.131	5.9741	0.0032137	0.0036893	0.0014006
0.224	0.016934	24.153	5.7596	0.0034147	0.0036639	0.001334
0.226	0.018062	24.147	5.5845	0.0037973	0.0033269	0.0012919
0.228	0.019999	24.114	5.4093	0.0041798	0.00299	0.0012498
0.23	0.022473	24.049	5.2554	0.0045624	0.0026531	0.0012076
0.232	0.025083	23.953	5.1227	0.004945	0.0023161	0.0011655
0.234	0.027394	23.822	4.99	0.0053275	0.0019792	0.0011234
0.236	0.029051	23.655	4.8976	0.0056711	0.0016008	0.001181
0.238	0.029869	23.452	4.8053	0.0060146	0.0012224	0.0012386
0.24	0.029883	23.213	4.7301	0.0063582	0.00084393	0.0012962
0.242	0.029339	22.936	4.6721	0.0067017	0.00046551	0.0013539
0.244	0.028633	22.623	4.6142	0.0070452	8.7086e-05	0.0014115
0.246	0.028212	22.274	4.5827	0.0071367	1.0234e-05	0.00153
0.248	0.028454	21.89	4.5513	0.0072282	-6.6619e-05	0.0016484
0.25	0.02957	21.473	4.5291	0.0073197	-0.00014347	0.0017669
0.252	0.031544	21.025	4.5162	0.0074113	-0.00022032	0.0018854
0.254	0.034128	20.548	4.5032	0.0075028	-0.00029718	0.0020038
0.256	0.036903	20.044	4.5021	0.0073181	-1.0949e-05	0.0020404
0.258	0.039372	19.517	4.5009	0.0071334	0.00027528	0.0020769
0.26	0.041093	18.969	4.5032	0.0069486	0.00056151	0.0021135
0.262	0.041779	18.405	4.5088	0.0067639	0.00084774	0.00215
0.264	0.041384	17.825	4.5145	0.0065792	0.001134	0.0021865
0.266	0.040113	17.238	4.5236	0.0063084	0.0014523	0.0020618
0.268	0.038377	16.642	4.5328	0.0060375	0.0017706	0.001937
0.27	0.036694	16.046	4.5427	0.0057666	0.0020889	0.0018123
0.272	0.035568	15.449	4.5532	0.0054957	0.0024073	0.0016875
0.274	0.035358	14.859	4.5637	0.0052249	0.0027256	0.0015628
0.276	0.036194	14.276	4.5739	0.0050215	0.0026921	0.0014117
0.278	0.037942	13.708	4.584	0.0048181	0.0026586	0.0012605
0.28	0.040234	13.153	4.5931	0.0046147	0.002625	0.0011094
0.282	0.042559	12.619	4.6011	0.0044113	0.0025915	0.00095828
0.284	0.04439	12.106	4.6091	0.0042079	0.002558	0.00080716
0.286	0.045307	11.619	4.613	0.0039816	0.0021629	0.00086356
0.288	0.045104	11.158	4.6168	0.0037553	0.0017677	0.00091996
0.29	0.043836	10.726	4.6175	0.003529	0.0013726	0.00097636
0.292	0.041801	10.326	4.615	0.0033027	0.00097745	0.0010328
0.294	0.039465	9.9576	4.6124	0.0030764	0.00058231	0.0010892
0.296	0.037343	9.6225	4.6013	0.0026878	0.00017765	0.001368
0.298	0.035869	9.3216	4.5903	0.0022992	-0.00022702	0.0016468
0.3	0.035289	9.0549	4.574	0.0019106	-0.00063169	0.0019256
0.302	0.035599	8.822	4.5526	0.001522	-0.0010364	0.0022044
0.304	0.03655	8.623	4.5311	0.0011334	-0.001441	0.0024832
0.306	0.037715	8.456	4.4982	0.00067572	-0.0015693	0.0027203
0.308	0.038597	8.3211	4.4652	0.00021804	-0.0016976	0.0029574
0.31	0.038761	8.215	4.4262	-0.00023963	-0.0018259	0.0031946
0.312	0.037945	8.1379	4.3813	-0.00069731	-0.0019543	0.0034317
0.314	0.036125	8.0854	4.3365	-0.001155	-0.0020826	0.0036688
0.316	0.033524	8.0574	4.2801	-0.0014938	-0.0020102	0.003676
0.318	0.030558	8.0487	4.2237	-0.0018327	-0.0019378	0.0036832
0.32	0.027733	8.0594	4.162	-0.0021715	-0.0018654	0.0036904
0.322	0.025513	8.0834	4.0952	-0.0025103	-0.001793	0.0036976
0.324	0.024218	8.1207	4.0283	-0.0028492	-0.0017206	0.0037048
0.326	0.023938	8.1652	3.9524	-0.0030805	-0.0016991	0.0036046
0.328	0.024522	8.2167	3.8765	-0.0033118	-0.0016777	0.0035044
0.33	0.025618	8.269	3.7967	-0.0035432	-0.0016563	0.0034042
0.332	0.026763	8.322	3.7129	-0.0037745	-0.0016348	0.003304
0.334	0.0275	8.3697	3.6292	-0.0040058	-0.0016134	0.0032038
0.336	0.027485	8.4121	3.5386	-0.0042186	-0.0017001	0.0031782
0.338	0.026564	8.4436	3.4479	-0.0044314	-0.0017869	0.0031527
0.34	0.024794	8.4642	3.3539	-0.0046442	-0.0018736	0.0031271
0.342	0.022411	8.4691	3.2565	-0.004857	-0.0019603	0.0031016
0.344	0.01976	8.4585	3.1591	-0.0050698	-0.0020471	0.0030761
0.346	0.017196	8.4284	3.0547	-0.005113	-0.0020677	0.0030718
0.348	0.01499	8.3789	2.9502	-0.0051562	-0.0020883	0.0030676
0.35	0.01328	8.3073	2.8419	-0.0051994	-0.0021089	0.0030634
0.352	0.012051	8.2136	2.7297	-0.0052426	-0.0021295	0.0030591
0.354	0.011177	8.0964	2.6175	-0.0052858	-0.0021501	0.0030549
0.356	0.010489	7.9556	2.497	-0.0049006	-0.0019933	0.0028895
0.358	0.0098625	7.7911	2.3766	-0.0045155	-0.0018365	0.002724
0.36	0.0092797	7.6027	2.252	-0.0041304	-0.0016798	0.0025586
0.362	0.0088648	7.3915	2.1232	-0.0037452	-0.001523	0.0023932
0.364	0.008862	7.1574	1.9945	-0.0033601	-0.0013662	0.0022277
0.366	0.0095705	6.9025	1.8582	-0.0026271	-0.0011254	0.0018413
0.368	0.011252	6.6267	1.7219	-0.0018941	-0.00088454	0.0014548
0.37	0.014034	6.333	1.5825	-0.0011611	-0.00064368	0.0010683
0.372	0.017843	6.0214	1.4401	-0.00042815	-0.00040283	0.00068185
0.374	0.022391	5.6956	1.2976	0.00030484	-0.00016197	0.00029538
0.376	0.027222	5.3554	1.1508	0.00095346	4.9315e-05	-0.00021084
0.378	0.031806	5.0053	1.004	0.0016021	0.0002606	-0.00071705
0.38	0.035671	4.645	0.85585	0.0022507	0.00047189	-0.0012233
0.382	0.038519	4.2792	0.70646	0.0028993	0.00068318	-0.0017295
0.384	0.040311	3.9078	0.55707	0.003548	0.00089447	-0.0022357
0.386	0.041281	3.5353	0.40676	0.0038277	0.001093	-0.0026992
0.388	0.041875	3.1617	0.25645	0.0041075	0.0012916	-0.0031627
0.39	0.042623	2.7914	0.10638	0.0043872	0.0014901	-0.0036262
0.392	0.04399	2.4244	-0.04343	0.004667	0.0016886	-0.0040897
0.394	0.046219	2.0646	-0.19324	0.0049468	0.0018872	-0.0045532
0.396	0.049241	1.7121	-0.34122	0.004991	0.0021192	-0.004848
0.398	0.052661	1.3701	-0.4892	0.0050352	0.0023512	-0.0051427
0.4	0.055836	1.0388	-0.63554	0.0050794	0.0025833	-0.0054375
0.402	0.058038	0.72078	-0.78023	0.0051237	0.0028153	-0.0057322
0.404	0.058648	0.41606	-0.92492	0.0051679	0.0030473	-0.006027
0.406	0.05735	0.1265	-1.0648	0.0052113	0.0032544	-0.006147
0.408	0.054252	-0.14787	-1.2046	0.0052547	0.0034616	-0.006267
0.41	0.049899	-0.40605	-1.3413	0.005298	0.0036687	-0.0063869
0.412	0.045178	-0.64804	-1.4748	0.0053414	0.0038758	-0.0065069
0.414	0.041112	-0.87366	-1.6083	0.0053848	0.0040829	-0.0066269
0.416	0.038602	-1.0829	-1.7346	0.005391	0.0041339	-0.0066505
0.418	0.038173	-1.2765	-1.861	0.0053972	0.0041849	-0.006674
0.42	0.039808	-1.4544	-1.9838	0.0054033	0.0042358	-0.0066976
0.422	0.042895	-1.618	-2.103	0.0054095	0.0042868	-0.0067212
0.424	0.046342	-1.7674	-2.2223	0.0054157	0.0043378	-0.0067447
0.426	0.048819	-1.9045	-2.3358	0.0051783	0.0041516	-0.0066684
0.428	0.049083	-2.0294	-2.4494	0.0049408	0.0039654	-0.006592
0.43	0.046313	-2.1446	-2.5611	0.0047034	0.0037792	-0.0065156
0.432	0.04035	-2.2502	-2.6709	0.0044659	0.0035929	-0.0064393
0.434	0.031799	-2.349	-2.7808	0.0042285	0.0034067	-0.0063629
0.436	0.02192	-2.4411	-2.8891	0.0037224	0.0030375	-0.0060829
0.438	0.012356	-2.5296	-2.9974	0.0032163	0.0026683	-0.0058029
0.44	0.0047279	-2.6143	-3.1054	0.0027102	0.0022991	-0.0055229
0.442	0.00020445	-2.6986	-3.2131	0.0022041	0.00193	-0.0052429
0.444	-0.00084514	-2.7824	-3.3209	0.0016981	0.0015608	-0.0049629
0.446	0.00097821	-2.8687	-3.4272	0.0011545	0.001186	-0.0044846
0.448	0.0041734	-2.9575	-3.5335	0.00061087	0.00081114	-0.0040063
0.45	0.0066515	-3.0516	-3.6378	6.7262e-05	0.00043633	-0.003528
0.452	0.0062284	-3.1509	-3.74	-0.00047634	6.1522e-05	-0.0030497
0.454	0.0011909	-3.2579	-3.8422	-0.0010199	-0.00031329	-0.0025714
0.456	-0.009202	-3.3725	-3.9363	-0.0013616	-0.00052025	-0.0020902
0.458	-0.024418	-3.4968	-4.0305	-0.0017033	-0.00072721	-0.001609
0.46	-0.042645	-3.6306	-4.1187	-0.002045	-0.00093417	-0.0011277
0.462	-0.061113	-3.7753	-4.2012	-0.0023866	-0.0011411	-0.00064648
0.464	-0.076693	-3.9311	-4.2836	-0.0027283	-0.0013481	-0.00016524
0.466	-0.08666	-4.0987	-4.3523	-0.0028146	-0.0013667	0.00013234
0.468	-0.089443	-4.278	-4.4209	-0.0029009	-0.0013854	0.00042991
0.47	-0.085197	-4.4695	-4.483	-0.0029872	-0.0014041	0.00072749
0.472	-0.076016	-4.673	-4.5386	-0.0030735	-0.0014227	0.0010251
0.474	-0.065732	-4.8884	-4.5941	-0.0031598	-0.0014414	0.0013226
0.476	-0.059289	-5.1155	-4.6397	-0.0030864	-0.0013998	0.0014193
0.478	-0.06179	-5.3536	-4.6853	-0.0030129	-0.0013583	0.0015159
0.48	-0.077412	-5.6027	-4.7282	-0.0029395	-0.0013167	0.0016126
0.482	-0.1084	-5.8616	-4.7685	-0.002866	-0.0012751	0.0017092
0.484	-0.1544	-6.1302	-4.8088	-0.0027926	-0.0012336	0.0018059
0.486	-0.21218	-6.407	-4.8483	-0.0026894	-0.0012346	0.0017982
0.488	-0.27604	-6.6918	-4.8878	-0.0025862	-0.0012356	0.0017904
0.49	-0.3386	-6.9829	-4.9283	-0.002483	-0.0012365	0.0017827
0.492	-0.39205	-7.2801	-4.9698	-0.0023798	-0.0012375	0.0017749
0.494	-0.42946	-7.5813	-5.0113	-0.0022766	-0.0012385	0.0017672
0.496	-0.44604	-7.8866	-5.0553	-0.00224	-0.0012384	0.0017659
0.498	-0.43998	-8.1937	-5.0993	-0.0022034	-0.0012383	0.0017646
0.5	-0.41276	-8.5025	-5.1439	-0.0021669	-0.0012382	0.0017634
0.502	-0.36887	-8.8108	-5.189	-0.0021303	-0.0012381	0.0017621
0.504	-0.31495	-9.1186	-5.2342	-0.0020937	-0.001238	0.0017608
0.506	-0.25858	-9.4234	-5.2788	-0.0021382	-0.0011487	0.0018354
0.508	-0.20698	-9.7255	-5.3233	-0.0021826	-0.0010595	0.00191
0.51	-0.16568	-10.022	-5.3671	-0.0022271	-0.00097024	0.0019845
0.512	-0.13778	-10.314	-5.4103	-0.0022715	-0.00088101	0.0020591
0.514	-0.12353	-10.599	-5.4535	-0.002316	-0.00079177	0.0021337
0.516	-0.12062	-10.877	-5.4968	-0.0023538	-0.00066393	0.0022572
0.518	-0.12483	-11.146	-5.54	-0.0023916	-0.0005361	0.0023807
0.52	-0.13113	-11.407	-5.5848	-0.0024294	-0.00040827	0.0025042
0.522	-0.13474	-11.656	-5.6311	-0.0024672	-0.00028044	0.0026277
0.524	-0.13212	-11.896	-5.6775	-0.0025049	-0.0001526	0.0027512
0.526	-0.12161	-12.123	-5.7302	-0.0024322	-0.00014593	0.0028174
0.528	-0.10358	-12.34	-5.783	-0.0023595	-0.00013925	0.0028837
0.53	-0.080183	-12.543	-5.8398	-0.0022868	-0.00013258	0.0029499
0.532	-0.0547	-12.734	-5.9006	-0.0022141	-0.0001259	0.0030162
0.534	-0.030709	-12.912	-5.9613	-0.0021414	-0.00011923	0.0030824
0.536	-0.011251	-13.076	-6.0285	-0.0019922	-0.00023771	0.0030266
0.538	0.0018151	-13.228	-6.0958	-0.001843	-0.0003562	0.0029707
0.54	0.0081477	-13.365	-6.1639	-0.0016937	-0.00047468	0.0029149
0.542	0.0088754	-13.49	-6.2328	-0.0015445	-0.00059316	0.002859
0.544	0.0062247	-13.601	-6.3018	-0.0013953	-0.00071165	0.0028032
0.546	0.00292	-13.7	-6.3667	-0.001346	-0.00068218	0.0026638
0.548	0.0015138	-13.786	-6.4315	-0.0012968	-0.0006527	0.0025243
0.55	0.0038073	-13.86	-6.4922	-0.0012475	-0.00062323	0.0023849
0.552	0.010488	-13.922	-6.5487	-0.0011983	-0.00059376	0.0022455
0.554	0.021057	-13.973	-6.6052	-0.001149	-0.00056428	0.002106
0.556	0.034041	-14.014	-6.6537	-0.0012763	-0.00016136	0.001956
0.558	0.047425	-14.046	-6.7022	-0.0014035	0.00024156	0.001806
0.56	0.059182	-14.069	-6.7497	-0.0015308	0.00064448	0.0016559
0.562	0.067762	-14.085	-6.7962	-0.001658	0.0010474	0.0015059
0.564	0.07245	-14.094	-6.8428	-0.0017853	0.0014503	0.0013558
0.566	0.073476	-14.097	-6.8982	-0.0018911	0.0019823	0.0012504
0.568	0.071905	-14.096	-6.9536	-0.001997	0.0025144	0.001145
0.57	0.06932	-14.093	-7.0194	-0.0021029	0.0030464	0.0010396
0.572	0.067403	-14.087	-7.0955	-0.0022087	0.0035784	0.00093413
0.574	0.067509	-14.081	-7.1715	-0.0023146	0.0041104	0.00082871
0.576	0.070361	-14.076	-7.2766	-0.0021657	0.0041972	0.000829
0.578	0.075901	-14.073	-7.3816	-0.0020169	0.004284	0.00082929
0.58	0.083359	-14.074	-7.5017	-0.0018681	0.0043708	0.00082958
0.582	0.091486	-14.08	-7.6367	-0.0017192	0.0044576	0.00082988
0.584	0.098893	-14.091	-7.7717	-0.0015704	0.0045445	0.00083017
0.586	0.10441	-14.112	-7.9292	-0.0012631	0.0039336	0.00097612
0.588	0.10737	-14.14	-8.0868	-0.00095579	0.0033228	0.0011221
0.59	0.10775	-14.179	-8.2485	-0.00064848	0.0027119	0.001268
0.592	0.10612	-14.23	-8.4146	-0.00034118	0.0021011	0.001414
0.594	0.10351	-14.293	-8.5807	-3.3869e-05	0.0014902	0.0015599
0.596	0.10109	-14.37	-8.7396	9.6226e-05	0.00058014	0.0017962
0.598	0.099883	-14.461	-8.8986	0.00022632	-0.00032994	0.0020325
0.6	0.10051	-14.568	-9.0479	0.00035641	-0.00124	0.0022687
0.602	0.10305	-14.69	-9.1877	0.00048651	-0.0021501	0.002505
0.604	0.10707	-14.829	-9.3274	0.0006166	-0.0030602	0.0027413
0.606	0.11174	-14.985	-9.4428	0.00043021	-0.0036532	0.0029544
0.608	0.11607	-15.159	-9.5583	0.00024382	-0.0042463	0.0031675
0.61	0.11921	-15.349	-9.6623	5.7421e-05	-0.0048393	0.0033806
0.612	0.12061	-15.556	-9.7548	-0.00012897	-0.0054323	0.0035937
0.614	0.12021	-15.78	-9.8473	-0.00031537	-0.0060254	0.0038069
0.616	0.11836	-16.02	-9.9203	-0.00062967	-0.0060869	0.0039426
0.618	0.11579	-16.275	-9.9932	-0.00094398	-0.0061484	0.0040783
0.62	0.11334	-16.545	-10.055	-0.0012583	-0.00621	0.0042141
0.622	0.11174	-16.828	-10.106	-0.0015726	-0.0062715	0.0043498
0.624	0.11143	-17.124	-10.157	-0.0018869	-0.0063331	0.0044855
0.626	0.11244	-17.429	-10.171	-0.0020973	-0.0061219	0.004556
0.628	0.11438	-17.745	-10.185	-0.0023078	-0.0059108	0.0046264
0.63	0.11655	-18.066	-10.164	-0.0025182	-0.0056996	0.0046968
0.632	0.11815	-18.394	-10.109	-0.0027287	-0.0054885	0.0047672
0.634	0.11845	-18.724	-10.054	-0.0029391	-0.0052773	0.0048376
0.636	0.11703	-19.055	-9.8844	-0.002978	-0.0051007	0.0048224
0.638	0.11385	-19.385	-9.7149	-0.0030168	-0.0049242	0.0048072
0.64	0.10929	-19.711	-9.4626	-0.0030557	-0.0047476	0.004792
0.642	0.10404	-20.03	-9.1276	-0.0030946	-0.004571	0.0047768
0.644	0.098922	-20.342	-8.7926	-0.0031334	-0.0043945	0.0047616
0.646	0.094699	-20.641	-8.2489	-0.0030433	-0.0042893	0.0045904
0.648	0.091865	-20.927	-7.7052	-0.0029533	-0.0041842	0.0044192
0.65	0.090535	-21.196	-7.046	-0.0028632	-0.004079	0.004248
