t	ekg	optical	pressure	accel_x	accel_y	accel_z
0	-0.00037893	-15.724	-13.286	0.0020063	-0.0013187	-0.00078235
0.002	-0.0040773	-12.205	-11.178	0.0019835	-0.0014419	-0.00079742
0.004	-0.0085046	-8.6861	-9.0696	0.0019607	-0.0015651	-0.00081249
0.006	-0.013811	-5.1671	-6.9613	0.0019379	-0.0016884	-0.00082756
0.008	-0.019927	-1.4063	-4.853	0.0019151	-0.0018116	-0.00084263
0.01	-0.026584	2.5961	-2.7612	0.0018923	-0.0019348	-0.0008577
0.012	-0.033378	6.8246	-0.68594	0.0018695	-0.002058	-0.00087276
0.014	-0.039868	11.279	1.3893	0.0018467	-0.0021812	-0.00088783
0.016	-0.045684	15.938	3.3833	0.0017313	-0.0020235	-0.00063896
0.018	-0.050607	20.802	5.3773	0.001616	-0.0018657	-0.0003901
0.02	-0.054616	25.843	7.314	0.0015006	-0.001708	-0.00014123
0.022	-0.05788	31.063	9.1933	0.0013852	-0.0015502	0.00010764
0.024	-0.060706	36.429	11.073	0.0012698	-0.0013925	0.00035651
0.026	-0.063451	41.943	12.815	0.0010358	-0.0010598	0.00065267
0.028	-0.066434	47.57	14.557	0.00080179	-0.00072702	0.00094883
0.03	-0.069852	53.309	16.223	0.00056776	-0.00039429	0.001245
0.032	-0.073739	59.125	17.812	0.00033374	-6.1554e-05	0.0015412
0.034	-0.077964	65.017	19.401	9.9712e-05	0.00027118	0.0018373
0.036	-0.082273	70.947	20.824	-0.00011666	0.00055335	0.0019438
0.038	-0.086362	76.915	22.248	-0.00033304	0.00083553	0.0020504
0.04	-0.089955	82.884	23.583	-0.00054941	0.0011177	0.0021569
0.042	-0.092877	88.854	24.831	-0.00076578	0.0013999	0.0022634
0.044	-0.095092	94.787	26.078	-0.00098216	0.001682	0.0023699
0.046	-0.096702	100.68	27.143	-0.00097546	0.0017074	0.0021967
0.048	-0.097914	106.51	28.208	-0.00096876	0.0017328	0.0020235
0.05	-0.09897	112.26	29.181	-0.00096206	0.0017582	0.0018502
0.052	-0.10007	117.92	30.061	-0.00095535	0.0017836	0.001677
0.054	-0.10133	123.47	30.942	-0.00094865	0.001809	0.0015038
0.056	-0.10271	128.89	31.645	-0.00066044	0.0015439	0.0011834
0.058	-0.10405	134.18	32.347	-0.00037223	0.0012787	0.00086307
0.06	-0.10507	139.32	32.968	-8.4021e-05	0.0010136	0.00054272
0.062	-0.1055	144.31	33.506	0.00020419	0.00074841	0.00022237
0.064	-0.1051	149.12	34.044	0.0004924	0.00048326	-9.7977e-05
0.066	-0.10372	153.77	34.437	0.00091355	0.00011293	-0.00029337
0.068	-0.10141	158.23	34.83	0.0013347	-0.0002574	-0.00048877
0.07	-0.098343	162.51	35.162	0.0017559	-0.00062773	-0.00068416
0.072	-0.094815	166.6	35.433	0.002177	-0.00099806	-0.00087956
0.074	-0.091183	170.5	35.704	0.0025982	-0.0013684	-0.001075
0.076	-0.087769	174.2	35.875	0.0029063	-0.0015922	-0.00099263
0.078	-0.084795	177.72	36.047	0.0032145	-0.001816	-0.00091031
0.08	-0.082326	181.04	36.178	0.0035226	-0.0020398	-0.00082799
0.082	-0.080262	184.18	36.269	0.0038308	-0.0022636	-0.00074567
0.084	-0.078359	187.13	36.36	0.004139	-0.0024874	-0.00066335
0.086	-0.07629	189.89	36.385	0.0041608	-0.0024625	-0.00043437
0.088	-0.073727	192.49	36.411	0.0041827	-0.0024375	-0.0002054
0.09	-0.070413	194.91	36.408	0.0042045	-0.0024126	2.3574e-05
0.092	-0.06623	197.17	36.378	0.0042264	-0.0023877	0.00025255
0.094	-0.061226	199.27	36.348	0.0042483	-0.0023627	0.00048152
0.096	-0.055602	201.22	36.267	0.0040138	-0.0021873	0.0006248
0.098	-0.049672	203.03	36.186	0.0037792	-0.0020118	0.00076808
0.1	-0.043794	204.7	36.083	0.0035447	-0.0018364	0.00091136
0.102	-0.038289	206.25	35.956	0.0033102	-0.0016609	0.0010546
0.104	-0.033382	207.68	35.829	0.0030757	-0.0014855	0.0011979
0.106	-0.029157	209	35.66	0.0027799	-0.0013328	0.0012032
0.108	-0.025558	210.23	35.49	0.0024841	-0.00118	0.0012086
0.11	-0.022409	211.35	35.301	0.0021883	-0.0010273	0.0012139
0.112	-0.019477	212.39	35.094	0.0018924	-0.00087453	0.0012192
0.114	-0.016528	213.35	34.886	0.0015966	-0.00072179	0.0012245
0.116	-0.013397	214.24	34.647	0.0013988	-0.00069353	0.0011939
0.118	-0.010018	215.06	34.407	0.0012009	-0.00066527	0.0011633
0.12	-0.0064423	215.82	34.156	0.001003	-0.00063701	0.0011327
0.122	-0.0028178	216.53	33.893	0.00080519	-0.00060875	0.0011021
0.124	0.00065745	217.19	33.63	0.00060734	-0.00058049	0.0010715
0.126	0.0037912	217.8	33.354	0.00049966	-0.00062761	0.0010426
0.128	0.0064517	218.36	33.077	0.00039199	-0.00067474	0.0010136
0.13	0.0086054	218.89	32.798	0.00028431	-0.00072186	0.0009847
0.132	0.010329	219.39	32.518	0.00017663	-0.00076899	0.00095577
0.134	0.011791	219.85	32.237	6.8959e-05	-0.00081611	0.00092685
0.136	0.013214	220.28	31.962	-3.7072e-05	-0.00077266	0.00085372
0.138	0.014811	220.67	31.686	-0.0001431	-0.0007292	0.0007806
0.14	0.016735	221.04	31.417	-0.00024913	-0.00068574	0.00070747
0.142	0.019037	221.38	31.153	-0.00035516	-0.00064229	0.00063435
0.144	0.021646	221.68	30.89	-0.00046119	-0.00059883	0.00056122
0.146	0.024387	221.96	30.643	-0.00058833	-0.00035745	0.00046882
0.148	0.027016	222.21	30.396	-0.00071547	-0.00011608	0.00037642
0.15	0.029281	222.42	30.157	-0.00084261	0.0001253	0.00028403
0.152	0.030977	222.6	29.927	-0.00096974	0.00036668	0.00019163
0.154	0.032005	222.75	29.697	-0.0010969	0.00060806	9.9231e-05
0.156	0.032386	222.87	29.48	-0.0012024	0.00094502	8.7559e-05
0.158	0.032268	222.95	29.263	-0.0013079	0.001282	7.5887e-05
0.16	0.03189	222.99	29.049	-0.0014134	0.0016189	6.4215e-05
0.162	0.03153	222.99	28.839	-0.0015189	0.0019559	5.2542e-05
0.164	0.03144	222.95	28.629	-0.0016245	0.0022929	4.087e-05
0.166	0.031797	222.87	28.416	-0.0016933	0.0025176	0.0001309
0.168	0.03266	222.75	28.204	-0.0017621	0.0027422	0.00022094
0.17	0.033965	222.59	27.987	-0.0018309	0.0029669	0.00031097
0.172	0.03554	222.38	27.763	-0.0018997	0.0031916	0.000401
0.174	0.037154	222.13	27.54	-0.0019686	0.0034163	0.00049103
0.176	0.03857	221.83	27.296	-0.0020074	0.0034566	0.0005921
0.178	0.039598	221.48	27.052	-0.0020462	0.003497	0.00069317
0.18	0.040144	221.09	26.794	-0.0020851	0.0035373	0.00079423
0.182	0.040226	220.66	26.522	-0.0021239	0.0035777	0.0008953
0.184	0.03996	220.18	26.25	-0.0021627	0.003618	0.00099636
0.186	0.039534	219.65	25.945	-0.0021215	0.0035642	0.001038
0.188	0.039156	219.08	25.639	-0.0020803	0.0035104	0.0010795
0.19	0.039005	218.46	25.316	-0.0020391	0.0034566	0.0011211
0.192	0.039184	217.8	24.974	-0.0019979	0.0034028	0.0011627
0.194	0.039706	217.09	24.632	-0.0019567	0.003349	0.0012043
0.196	0.040492	216.34	24.253	-0.0017863	0.0032549	0.0011908
0.198	0.041398	215.55	23.874	-0.0016158	0.0031609	0.0011773
0.2	0.04226	214.71	23.478	-0.0014454	0.0030669	0.0011639
0.202	0.042937	213.84	23.064	-0.0012749	0.0029728	0.0011504
0.204	0.043351	212.92	22.65	-0.0011044	0.0028788	0.0011369
0.206	0.043508	211.96	22.205	-0.0009062	0.0026895	0.001065
0.208	0.043492	210.97	21.76	-0.00070796	0.0025003	0.00099303
0.21	0.043442	209.94	21.303	-0.00050972	0.002311	0.0009211
0.212	0.043508	208.87	20.835	-0.00031148	0.0021218	0.00084917
0.214	0.043804	207.76	20.367	-0.00011324	0.0019326	0.00077724
0.216	0.044377	206.61	19.885	-8.2504e-05	0.0016512	0.00062432
0.218	0.045179	205.44	19.403	-5.1772e-05	0.0013698	0.00047139
0.22	0.046084	204.22	18.921	-2.104e-05	0.0010884	0.00031847
0.222	0.046912	202.97	18.438	9.6915e-06	0.00080703	0.00016555
0.224	0.047477	201.69	17.954	4.0423e-05	0.00052565	1.2626e-05
0.226	0.047639	200.37	17.483	-0.00012383	0.00030781	-0.00016037
0.228	0.047349	199.02	17.012	-0.00028808	8.9964e-05	-0.00033336
0.23	0.046667	197.64	16.554	-0.00045233	-0.00012788	-0.00050635
0.232	0.045754	196.23	16.108	-0.00061658	-0.00034573	-0.00067935
0.234	0.044841	194.79	15.662	-0.00078083	-0.00056357	-0.00085234
0.236	0.044169	193.32	15.252	-0.00091602	-0.00059869	-0.00090547
0.238	0.043932	191.82	14.842	-0.0010512	-0.00063382	-0.00095861
0.24	0.044218	190.3	14.455	-0.0011864	-0.00066894	-0.0010117
0.242	0.044986	188.75	14.089	-0.0013216	-0.00070407	-0.0010649
0.244	0.046064	187.18	13.724	-0.0014568	-0.00073919	-0.001118
0.246	0.047187	185.59	13.407	-0.0013457	-0.00070478	-0.00099437
0.248	0.048059	183.97	13.09	-0.0012347	-0.00067038	-0.00087073
0.25	0.048429	182.34	12.798	-0.0011236	-0.00063597	-0.0007471
0.252	0.048151	180.7	12.531	-0.0010125	-0.00060157	-0.00062346
0.254	0.047232	179.05	12.264	-0.00090147	-0.00056717	-0.00049983
0.256	0.045834	177.38	12.045	-0.00061923	-0.00065528	-0.00030055
0.258	0.044237	175.71	11.826	-0.00033698	-0.00074339	-0.00010128
0.26	0.042774	174.04	11.631	-5.4733e-05	-0.0008315	9.7998e-05
0.262	0.041746	172.37	11.458	0.00022751	-0.00091961	0.00029727
0.264	0.041338	170.71	11.285	0.00050976	-0.0010077	0.00049655
0.266	0.041564	169.06	11.155	0.00065609	-0.001178	0.00064032
0.268	0.042256	167.42	11.025	0.00080242	-0.0013482	0.00078408
0.27	0.043093	165.8	10.916	0.00094876	-0.0015184	0.00092785
0.272	0.043682	164.2	10.827	0.0010951	-0.0016887	0.0010716
0.274	0.043654	162.62	10.738	0.0012414	-0.0018589	0.0012154
0.276	0.04277	161.08	10.688	0.0010731	-0.0018662	0.0012756
0.278	0.040998	159.57	10.638	0.0009048	-0.0018736	0.0013358
0.28	0.038544	158.1	10.606	0.00073649	-0.001881	0.001396
0.282	0.035823	156.68	10.592	0.00056818	-0.0018883	0.0014562
0.284	0.033371	155.3	10.579	0.00039987	-0.0018957	0.0015164
0.286	0.031728	153.97	10.597	9.1465e-05	-0.001643	0.001541
0.288	0.031298	152.69	10.616	-0.00021694	-0.0013903	0.0015656
0.29	0.032236	151.47	10.648	-0.00052534	-0.0011376	0.0015903
0.292	0.034383	150.31	10.695	-0.00083374	-0.00088493	0.0016149
0.294	0.037274	149.21	10.741	-0.0011421	-0.00063225	0.0016395
0.296	0.040212	148.18	10.808	-0.0012532	-0.00032955	0.0016601
0.298	0.042413	147.2	10.875	-0.0013644	-2.6847e-05	0.0016807
0.3	0.043175	146.3	10.95	-0.0014755	0.00027585	0.0017012
0.302	0.042036	145.46	11.032	-0.0015866	0.00057856	0.0017218
0.304	0.038901	144.68	11.113	-0.0016977	0.00088126	0.0017424
0.306	0.034079	143.97	11.203	-0.0014788	0.0009611	0.0017551
0.308	0.028242	143.33	11.293	-0.00126	0.0010409	0.0017679
0.31	0.022297	142.74	11.384	-0.0010411	0.0011208	0.0017806
0.312	0.017201	142.22	11.476	-0.00082223	0.0012006	0.0017934
0.314	0.013757	141.76	11.569	-0.00060337	0.0012805	0.0018062
0.316	0.012444	141.35	11.66	-0.00025119	0.0011001	0.0018095
0.318	0.013304	140.99	11.751	0.00010099	0.00091962	0.0018129
0.32	0.015931	140.68	11.839	0.00045317	0.0007392	0.0018162
0.322	0.01955	140.41	11.926	0.00080535	0.00055877	0.0018196
0.324	0.023184	140.18	12.013	0.0011575	0.00037835	0.0018229
0.326	0.02586	139.99	12.092	0.0013538	0.00013271	0.0018271
0.328	0.026821	139.82	12.172	0.00155	-0.00011293	0.0018312
0.33	0.025682	139.68	12.248	0.0017462	-0.00035856	0.0018353
0.332	0.022506	139.55	12.319	0.0019424	-0.0006042	0.0018395
0.334	0.017784	139.45	12.389	0.0021387	-0.00084984	0.0018436
0.336	0.012319	139.34	12.448	0.0021245	-0.00097169	0.0018347
0.338	0.0070395	139.24	12.508	0.0021103	-0.0010935	0.0018259
0.34	0.002798	139.14	12.559	0.0020961	-0.0012154	0.001817
0.342	0.0001912	139.03	12.604	0.0020819	-0.0013373	0.0018081
0.344	-0.00055454	138.91	12.648	0.0020677	-0.0014591	0.0017992
0.346	0.0003943	138.77	12.675	0.0020395	-0.0014348	0.0017138
0.348	0.0025482	138.61	12.702	0.0020114	-0.0014105	0.0016283
0.35	0.0052371	138.42	12.719	0.0019832	-0.0013862	0.0015429
0.352	0.0077897	138.21	12.726	0.0019551	-0.0013619	0.0014574
0.354	0.0097031	137.97	12.734	0.0019269	-0.0013375	0.001372
0.356	0.010762	137.69	12.72	0.0019998	-0.0012566	0.001157
0.358	0.011079	137.38	12.707	0.0020727	-0.0011756	0.00094193
0.36	0.011043	137.03	12.683	0.0021456	-0.0010946	0.0007269
0.362	0.011203	136.65	12.648	0.0022185	-0.0010136	0.00051187
0.364	0.012108	136.23	12.613	0.0022914	-0.00093264	0.00029684
0.366	0.014149	135.77	12.557	0.0023039	-0.00087626	2.7347e-05
0.368	0.017444	135.27	12.502	0.0023163	-0.00081988	-0.00024215
0.37	0.021807	134.75	12.435	0.0023287	-0.00076349	-0.00051164
0.372	0.026781	134.19	12.359	0.0023411	-0.00070711	-0.00078113
0.374	0.031763	133.59	12.282	0.0023535	-0.00065073	-0.0010506
0.376	0.036155	132.98	12.185	0.00212	-0.00064639	-0.0011842
0.378	0.039521	132.33	12.088	0.0018865	-0.00064204	-0.0013178
0.38	0.041694	131.67	11.98	0.0016531	-0.00063769	-0.0014513
0.382	0.042813	130.98	11.862	0.0014196	-0.00063334	-0.0015849
0.384	0.043284	130.29	11.745	0.0011861	-0.000629	-0.0017185
0.386	0.043652	129.58	11.606	0.00079256	-0.00063477	-0.0016243
0.388	0.044451	128.87	11.468	0.00039901	-0.00064054	-0.0015301
0.39	0.046044	128.15	11.319	5.4536e-06	-0.00064631	-0.001436
0.392	0.048519	127.44	11.161	-0.0003881	-0.00065208	-0.0013418
0.394	0.051651	126.74	11.003	-0.00078165	-0.00065785	-0.0012476
0.396	0.054965	126.04	10.826	-0.001104	-0.00055927	-0.0010745
0.398	0.057864	125.35	10.649	-0.0014263	-0.00046069	-0.00090137
0.4	0.059802	124.69	10.464	-0.0017486	-0.00036212	-0.00072826
0.402	0.060449	124.04	10.27	-0.0020709	-0.00026354	-0.00055514
0.404	0.059802	123.41	10.077	-0.0023932	-0.00016496	-0.00038202
0.406	0.058216	122.81	9.8702	-0.0025734	0.0001204	-0.00035267
0.408	0.056325	122.23	9.6631	-0.0027535	0.00040576	-0.00032332
0.41	0.054883	121.67	9.4504	-0.0029337	0.00069112	-0.00029397
0.412	0.054563	121.15	9.2321	-0.0031138	0.00097648	-0.00026463
0.414	0.055763	120.65	9.0137	-0.003294	0.0012618	-0.00023528
0.416	0.058473	120.18	8.786	-0.003416	0.0016328	-0.00038867
0.418	0.062242	119.73	8.5583	-0.003538	0.0020038	-0.00054207
0.42	0.066263	119.31	8.3265	-0.00366	0.0023748	-0.00069547
0.422	0.069565	118.91	8.0907	-0.003782	0.0027457	-0.00084886
0.424	0.071256	118.53	7.8548	-0.003904	0.0031167	-0.0010023
0.426	0.070759	118.17	7.6115	-0.0039593	0.0033304	-0.0011798
0.428	0.067986	117.81	7.3682	-0.0040146	0.0035442	-0.0013573
0.43	0.063393	117.48	7.1215	-0.0040699	0.0037579	-0.0015348
0.432	0.057887	117.14	6.8714	-0.0041251	0.0039716	-0.0017123
0.434	0.052618	116.81	6.6214	-0.0041804	0.0041853	-0.0018898
0.436	0.048691	116.48	6.3658	-0.0040362	0.0041037	-0.0019199
0.438	0.046868	116.14	6.1102	-0.0038919	0.0040221	-0.00195
0.44	0.047351	115.79	5.8529	-0.0037477	0.0039404	-0.0019801
0.442	0.049686	115.42	5.5939	-0.0036035	0.0038588	-0.0020102
0.444	0.052849	115.04	5.3348	-0.0034592	0.0037772	-0.0020404
0.446	0.055467	114.63	5.0751	-0.003114	0.0035019	-0.0018776
0.448	0.056162	114.19	4.8153	-0.0027689	0.0032267	-0.0017149
0.45	0.053904	113.72	4.5567	-0.0024237	0.0029515	-0.0015522
0.452	0.048302	113.21	4.2993	-0.0020785	0.0026762	-0.0013895
0.454	0.039744	112.66	4.0418	-0.0017333	0.002401	-0.0012267
0.456	0.029343	112.07	3.7893	-0.0014309	0.0021258	-0.00097236
0.458	0.01869	111.44	3.5367	-0.0011285	0.0018507	-0.00071798
0.46	0.0094702	110.76	3.2874	-0.00082609	0.0015756	-0.0004636
0.462	0.0030263	110.03	3.0414	-0.00052368	0.0013004	-0.00020922
0.464	-1.5349e-05	109.25	2.7953	-0.00022127	0.0010253	4.5161e-05
0.466	4.4847e-05	108.43	2.5561	-0.00019107	0.00083757	0.00021019
0.468	0.0019967	107.56	2.3168	-0.00016087	0.00064986	0.00037522
0.47	0.0039787	106.64	2.0805	-0.00013067	0.00046215	0.00054025
0.472	0.0039266	105.68	1.8472	-0.00010048	0.00027443	0.00070527
0.474	0.00011314	104.67	1.6138	-7.0276e-05	8.6721e-05	0.0008703
0.476	-0.0083579	103.62	1.3845	-0.00023983	-3.1893e-05	0.00083597
0.478	-0.021234	102.54	1.1553	-0.00040939	-0.00015051	0.00080164
0.48	-0.03707	101.42	0.92692	-0.00057894	-0.00026912	0.00076731
0.482	-0.053492	100.27	0.69947	-0.0007485	-0.00038773	0.00073297
0.484	-0.067733	99.09	0.47203	-0.00091805	-0.00050635	0.00069864
0.486	-0.077348	97.892	0.24402	-0.00099524	-0.00058039	0.00055115
0.488	-0.080914	96.679	0.016008	-0.0010724	-0.00065443	0.00040365
0.49	-0.078577	95.453	-0.21339	-0.0011496	-0.00072847	0.00025615
0.492	-0.072273	94.223	-0.44419	-0.0012268	-0.00080252	0.00010866
0.494	-0.065552	92.988	-0.67499	-0.001304	-0.00087656	-3.8837e-05
0.496	-0.062993	91.76	-0.91044	-0.0011273	-0.00092584	-9.8548e-05
0.498	-0.069308	90.538	-1.1459	-0.00095055	-0.00097513	-0.00015826
0.5	-0.088303	89.332	-1.3843	-0.00077384	-0.0010244	-0.00021797
0.502	-0.12193	88.141	-1.6257	-0.00059713	-0.0010737	-0.00027768
0.504	-0.16959	86.974	-1.867	-0.00042042	-0.001123	-0.00033739
0.506	-0.22796	85.831	-2.1146	-0.00014862	-0.0011645	-0.0002164
0.508	-0.29128	84.718	-2.3621	0.00012317	-0.001206	-9.5402e-05
0.51	-0.35215	83.636	-2.6122	0.00039497	-0.0012476	2.5593e-05
0.512	-0.40278	82.589	-2.8649	0.00066676	-0.0012891	0.00014659
0.514	-0.43626	81.577	-3.1175	0.00093856	-0.0013306	0.00026758
0.516	-0.44778	80.603	-3.3725	0.0010179	-0.0013074	0.00047783
0.518	-0.43556	79.666	-3.6276	0.0010973	-0.0012841	0.00068807
0.52	-0.40111	78.766	-3.8818	0.0011766	-0.0012609	0.00089832
0.522	-0.34905	77.904	-4.1351	0.001256	-0.0012377	0.0011086
0.524	-0.28627	77.076	-4.3885	0.0013353	-0.0012144	0.0013188
0.526	-0.22073	76.284	-4.6353	0.0011473	-0.0010292	0.0014745
0.528	-0.16015	75.521	-4.8822	0.00095928	-0.00084397	0.0016303
0.53	-0.11067	74.788	-5.1238	0.00077125	-0.00065873	0.001786
0.532	-0.076033	74.077	-5.3599	0.00058323	-0.0004735	0.0019418
0.534	-0.057066	73.39	-5.596	0.0003952	-0.00028826	0.0020975
0.536	-0.051872	72.717	-5.8189	0.00016121	-1.2582e-06	0.002114
0.538	-0.056443	72.058	-6.0417	-7.2775e-05	0.00028575	0.0021304
0.54	-0.065641	71.404	-6.2579	-0.00030676	0.00057275	0.0021469
0.542	-0.074313	70.755	-6.4675	-0.00054075	0.00085976	0.0021633
0.544	-0.0783	70.099	-6.677	-0.00077474	0.0011468	0.0021797
0.546	-0.075152	69.438	-6.876	-0.00079402	0.0012758	0.0020397
0.548	-0.064425	68.76	-7.075	-0.0008133	0.0014049	0.0018997
0.55	-0.04753	68.066	-7.2711	-0.00083258	0.0015339	0.0017597
0.552	-0.027207	67.346	-7.4643	-0.00085185	0.0016629	0.0016197
0.554	-0.0067617	66.6	-7.6575	-0.00087113	0.001792	0.0014797
0.556	0.010739	65.82	-7.8503	-0.00064646	0.0015892	0.0012709
0.558	0.023146	65.004	-8.043	-0.00042179	0.0013864	0.001062
0.56	0.029634	64.148	-8.2379	-0.00019712	0.0011837	0.00085319
0.562	0.030769	63.249	-8.435	2.7544e-05	0.00098092	0.00064435
0.564	0.028252	62.304	-8.632	0.00025221	0.00077815	0.0004355
0.566	0.02442	61.313	-8.8361	0.00051687	0.00040954	0.00035867
0.568	0.021644	60.273	-9.0402	0.00078153	4.0927e-05	0.00028184
0.57	0.021769	59.185	-9.2484	0.0010462	-0.00032769	0.00020501
0.572	0.025719	58.048	-9.4607	0.0013108	-0.0006963	0.00012819
0.574	0.03336	56.862	-9.673	0.0015755	-0.0010649	5.1358e-05
0.576	0.043612	55.631	-9.8931	0.0016568	-0.0012672	0.00020806
0.578	0.05479	54.354	-10.113	0.0017381	-0.0014695	0.00036476
0.58	0.065057	53.037	-10.337	0.0018194	-0.0016719	0.00052146
0.582	0.072888	51.68	-10.565	0.0019007	-0.0018742	0.00067816
0.584	0.077413	50.291	-10.792	0.001982	-0.0020765	0.00083486
0.586	0.078587	48.869	-11.026	0.0018674	-0.0020401	0.00097854
0.588	0.077145	47.424	-11.261	0.0017527	-0.0020036	0.0011222
0.59	0.074363	45.956	-11.498	0.0016381	-0.0019672	0.0012659
0.592	0.071712	44.476	-11.739	0.0015235	-0.0019307	0.0014096
0.594	0.070474	42.985	-11.98	0.0014088	-0.0018943	0.0015532
0.596	0.071438	41.493	-12.227	0.0013445	-0.0019084	0.0012602
0.598	0.074734	40	-12.474	0.0012802	-0.0019226	0.00096717
0.6	0.079835	38.52	-12.723	0.0012159	-0.0019367	0.00067414
0.602	0.085729	37.051	-12.973	0.0011516	-0.0019508	0.0003811
0.604	0.0912	35.606	-13.223	0.0010873	-0.001965	8.8064e-05
0.606	0.095139	34.184	-13.471	0.0013222	-0.0022735	-0.00071307
0.608	0.096821	32.796	-13.72	0.0015571	-0.002582	-0.0015142
0.61	0.096067	31.443	-13.963	0.001792	-0.0028906	-0.0023154
0.612	0.093265	30.132	-14.203	0.0020269	-0.0031991	-0.0031165
0.614	0.089246	28.865	-14.442	0.0022618	-0.0035076	-0.0039176
0.616	0.085064	27.649	-14.665	0.0027129	-0.0039394	-0.0047467
0.618	0.081724	26.483	-14.888	0.0031639	-0.0043712	-0.0055757
0.62	0.079945	25.373	-15.1	0.003615	-0.0048029	-0.0064047
0.622	0.079999	24.319	-15.303	0.004066	-0.0052347	-0.0072337
0.624	0.081673	23.324	-15.505	0.0045171	-0.0056665	-0.0080627
0.626	0.084352	22.388	-15.686	0.004798	-0.0058217	-0.008363
0.628	0.087195	21.512	-15.868	0.0050788	-0.0059769	-0.0086633
0.63	0.08936	20.695	-16.043	0.0053597	-0.0061322	-0.0089635
0.632	0.090215	19.936	-16.21	0.0056406	-0.0062874	-0.0092638
0.634	0.089484	19.235	-16.377	0.0059215	-0.0064426	-0.009564
0.636	0.087293	18.59	-16.539	0.0057464	-0.0061484	-0.0092831
0.638	0.084112	17.999	-16.701	0.0055713	-0.0058542	-0.0090021
0.64	0.080618	17.46	-16.864	0.0053962	-0.0055601	-0.0087212
0.642	0.077506	16.971	-17.029	0.0052212	-0.0052659	-0.0084402
0.644	0.075303	16.528	-17.193	0.0050461	-0.0049717	-0.0081593
