t	ekg	optical	pressure	accel_x	accel_y	accel_z
0	0.079095	28.021	214.67	-0.03095	-0.0084062	-0.010563
0.002	0.080803	29.54	215.8	-0.030706	-0.0082854	-0.0093977
0.004	0.081932	31.059	216.93	-0.030462	-0.0081646	-0.0082321
0.006	0.082711	32.553	218.05	-0.030218	-0.0080438	-0.0070666
0.008	0.083421	34.021	218.98	-0.029974	-0.007923	-0.005901
0.01	0.084326	35.459	219.91	-0.02973	-0.0078022	-0.0047355
0.012	0.085627	36.866	220.66	-0.029486	-0.0076814	-0.0035699
0.014	0.087417	38.236	221.24	-0.029242	-0.0075606	-0.0024044
0.016	0.089659	39.568	221.82	-0.028997	-0.0074399	-0.0012388
0.018	0.092203	40.857	221.95	-0.028484	-0.0076472	0.00070995
0.02	0.094814	42.102	222.08	-0.02797	-0.0078545	0.0026587
0.022	0.097229	43.297	221.97	-0.027457	-0.0080618	0.0046075
0.024	0.09921	44.442	221.63	-0.026943	-0.0082691	0.0065563
0.026	0.1006	45.532	221.29	-0.026429	-0.0084764	0.0085051
0.028	0.10134	46.566	220.54	-0.025799	-0.0087436	0.010506
0.03	0.10151	47.539	219.79	-0.025168	-0.0090107	0.012507
0.032	0.10127	48.453	218.9	-0.024537	-0.0092778	0.014508
0.034	0.10086	49.302	217.86	-0.023906	-0.0095449	0.016509
0.036	0.10052	50.088	216.82	-0.023276	-0.0098121	0.01851
0.038	0.10046	50.809	215.63	-0.023002	-0.0098267	0.019771
0.04	0.10083	51.464	214.43	-0.022729	-0.0098413	0.021033
0.042	0.10166	52.053	213.21	-0.022456	-0.0098558	0.022295
0.044	0.10292	52.577	211.97	-0.022183	-0.0098704	0.023556
0.046	0.10448	53.036	210.72	-0.021909	-0.009885	0.024818
0.048	0.10618	53.432	209.49	-0.022306	-0.0095526	0.025012
0.05	0.10785	53.767	208.26	-0.022703	-0.0092202	0.025206
0.052	0.10934	54.042	207.05	-0.0231	-0.0088877	0.0254
0.054	0.11056	54.261	205.87	-0.023497	-0.0085553	0.025594
0.056	0.11145	54.425	204.68	-0.023894	-0.0082229	0.025787
0.058	0.11201	54.54	203.55	-0.024688	-0.0076409	0.024995
0.06	0.11223	54.606	202.43	-0.025482	-0.007059	0.024204
0.062	0.11215	54.631	201.34	-0.026276	-0.0064771	0.023412
0.064	0.11177	54.614	200.3	-0.02707	-0.0058951	0.02262
0.066	0.1111	54.565	199.27	-0.027864	-0.0053132	0.021828
0.068	0.11014	54.483	198.37	-0.028293	-0.0046463	0.020383
0.07	0.10891	54.376	197.46	-0.028722	-0.0039795	0.018937
0.072	0.10745	54.246	196.66	-0.029151	-0.0033126	0.017492
0.074	0.10583	54.1	195.96	-0.02958	-0.0026458	0.016047
0.076	0.10419	53.939	195.25	-0.03001	-0.001979	0.014602
0.078	0.10264	53.77	194.76	-0.029311	-0.0014434	0.013397
0.08	0.10131	53.594	194.27	-0.028613	-0.00090793	0.012193
0.082	0.1003	53.417	193.86	-0.027914	-0.00037241	0.010988
0.084	0.099643	53.241	193.52	-0.027216	0.0001631	0.0097835
0.086	0.099281	53.07	193.18	-0.026517	0.00069861	0.0085789
0.088	0.099088	52.905	192.82	-0.024409	0.00082677	0.0090978
0.09	0.098882	52.75	192.47	-0.022301	0.00095493	0.0096167
0.092	0.09846	52.605	191.97	-0.020193	0.0010831	0.010136
0.094	0.097643	52.473	191.33	-0.018085	0.0012112	0.010655
0.096	0.096317	52.353	190.7	-0.015977	0.0013394	0.011173
0.098	0.094461	52.247	189.48	-0.012967	0.00086551	0.014129
0.1	0.092154	52.154	188.27	-0.0099581	0.00039161	0.017084
0.102	0.089558	52.074	186.65	-0.0069486	-8.228e-05	0.020039
0.104	0.086875	52.005	184.63	-0.0039392	-0.00055617	0.022995
0.106	0.084305	51.947	182.61	-0.00092975	-0.0010301	0.02595
0.108	0.081994	51.898	179.71	0.0015767	-0.0019904	0.029459
0.11	0.080002	51.854	176.8	0.0040831	-0.0029506	0.032968
0.112	0.078293	51.816	173.52	0.0065896	-0.0039109	0.036478
0.114	0.076753	51.777	169.87	0.009096	-0.0048712	0.039987
0.116	0.075228	51.738	166.21	0.011602	-0.0058315	0.043496
0.118	0.073574	51.693	162.15	0.011796	-0.0068117	0.043558
0.12	0.07171	51.642	158.09	0.011989	-0.0077918	0.04362
0.122	0.069651	51.578	154.07	0.012182	-0.008772	0.043682
0.124	0.067506	51.5	150.09	0.012375	-0.0097521	0.043744
0.126	0.065463	51.403	146.12	0.012568	-0.010732	0.043806
0.128	0.06373	51.286	142.72	0.0096098	-0.01119	0.038005
0.13	0.062477	51.144	139.32	0.0066518	-0.011647	0.032204
0.132	0.061771	50.976	136.4	0.0036939	-0.012105	0.026403
0.134	0.061543	50.777	133.96	0.00073601	-0.012562	0.020601
0.136	0.061583	50.547	131.53	-0.0022219	-0.01302	0.0148
0.138	0.061576	50.282	130.22	-0.0069301	-0.012686	0.0056863
0.14	0.061175	49.983	128.92	-0.011638	-0.012352	-0.0034275
0.142	0.060087	49.646	128.14	-0.016346	-0.012018	-0.012541
0.144	0.058158	49.272	127.88	-0.021055	-0.011684	-0.021655
0.146	0.055434	48.86	127.62	-0.025763	-0.01135	-0.030769
0.148	0.052175	48.411	128.1	-0.029193	-0.010328	-0.037165
0.15	0.048819	47.925	128.58	-0.032624	-0.0093056	-0.04356
0.152	0.045898	47.402	129.22	-0.036054	-0.0082832	-0.049956
0.154	0.043926	46.846	130.01	-0.039485	-0.0072608	-0.056352
0.156	0.043282	46.257	130.8	-0.042916	-0.0062385	-0.062748
0.158	0.04411	45.639	131.47	-0.042877	-0.0048185	-0.0624
0.16	0.046281	44.993	132.15	-0.042838	-0.0033986	-0.062053
0.162	0.049397	44.325	132.6	-0.042799	-0.0019786	-0.061705
0.164	0.052876	43.635	132.83	-0.04276	-0.00055863	-0.061358
0.166	0.056062	42.932	133.07	-0.042721	0.00086133	-0.06101
0.168	0.058371	42.214	132.71	-0.039721	0.0024144	-0.055294
0.17	0.059417	41.491	132.35	-0.036721	0.0039674	-0.049578
0.172	0.059089	40.763	131.7	-0.03372	0.0055205	-0.043862
0.174	0.05758	40.039	130.77	-0.03072	0.0070735	-0.038146
0.176	0.055337	39.319	129.83	-0.02772	0.0086266	-0.03243
0.178	0.052957	38.613	128.46	-0.024325	0.010089	-0.025906
0.18	0.051053	37.921	127.09	-0.02093	0.011551	-0.019382
0.182	0.050121	37.252	125.59	-0.017535	0.013013	-0.012858
0.184	0.050434	36.606	123.96	-0.014139	0.014475	-0.0063345
0.186	0.052002	35.991	122.34	-0.010744	0.015937	0.0001894
0.188	0.054586	35.408	120.63	-0.0093604	0.017002	0.0042939
0.19	0.057779	34.864	118.93	-0.0079765	0.018067	0.0083983
0.192	0.061121	34.359	117.23	-0.0065927	0.019132	0.012503
0.194	0.064216	33.898	115.55	-0.0052088	0.020197	0.016607
0.196	0.066827	33.483	113.86	-0.0038249	0.021262	0.020712
0.198	0.06891	33.117	112.24	-0.0050586	0.021565	0.022275
0.2	0.070602	32.8	110.61	-0.0062923	0.021868	0.023838
0.202	0.072143	32.534	109.01	-0.0075261	0.022171	0.025402
0.204	0.073766	32.321	107.44	-0.0087598	0.022474	0.026965
0.206	0.075597	32.159	105.87	-0.0099935	0.022777	0.028528
0.208	0.077576	32.05	104.32	-0.012566	0.022161	0.028969
0.21	0.079446	31.992	102.78	-0.015138	0.021546	0.029409
0.212	0.080801	31.984	101.24	-0.017711	0.020931	0.02985
0.214	0.081193	32.025	99.718	-0.020283	0.020316	0.03029
0.216	0.080269	32.113	98.194	-0.022855	0.019701	0.03073
0.218	0.077897	32.245	96.703	-0.024762	0.018452	0.031085
0.22	0.074252	32.42	95.213	-0.026669	0.017203	0.03144
0.222	0.069816	32.632	93.752	-0.028575	0.015955	0.031795
0.224	0.065303	32.882	92.321	-0.030482	0.014706	0.032151
0.226	0.061513	33.163	90.89	-0.032389	0.013458	0.032506
0.228	0.059129	33.473	89.539	-0.032502	0.01215	0.033018
0.23	0.058542	33.807	88.187	-0.032615	0.010841	0.03353
0.232	0.059716	34.165	86.874	-0.032728	0.0095332	0.034043
0.234	0.062153	34.537	85.6	-0.032841	0.0082251	0.034555
0.236	0.064967	34.925	84.326	-0.032954	0.006917	0.035068
0.238	0.067053	35.322	83.099	-0.031885	0.0059193	0.035613
0.24	0.067329	35.726	81.873	-0.030816	0.0049215	0.036158
0.242	0.064994	36.131	80.648	-0.029747	0.0039238	0.036704
0.244	0.059723	36.537	79.425	-0.028678	0.0029261	0.037249
0.246	0.051774	36.938	78.202	-0.027609	0.0019284	0.037795
0.248	0.04196	37.333	76.938	-0.02693	0.0010841	0.038159
0.25	0.031494	37.719	75.675	-0.026252	0.00023978	0.038523
0.252	0.021738	38.094	74.381	-0.025573	-0.00060455	0.038887
0.254	0.0139	38.454	73.054	-0.024894	-0.0014489	0.039251
0.256	0.0087752	38.8	71.728	-0.024216	-0.0022932	0.039615
0.258	0.0065638	39.129	70.341	-0.024731	-0.0033657	0.039616
0.26	0.0068316	39.442	68.953	-0.025246	-0.0044382	0.039617
0.262	0.0086128	39.735	67.546	-0.025761	-0.0055107	0.039618
0.264	0.01064	40.011	66.12	-0.026276	-0.0065832	0.039619
0.266	0.011637	40.267	64.693	-0.026791	-0.0076557	0.039621
0.268	0.010602	40.506	63.252	-0.027778	-0.0089434	0.039222
0.27	0.0070225	40.727	61.811	-0.028765	-0.010231	0.038824
0.272	0.00094647	40.93	60.367	-0.029752	-0.011519	0.038425
0.274	-0.0070979	41.119	58.921	-0.030739	-0.012807	0.038027
0.276	-0.016325	41.291	57.475	-0.031726	-0.014094	0.037628
0.278	-0.02599	41.451	56.012	-0.031988	-0.015094	0.036849
0.28	-0.035696	41.598	54.548	-0.03225	-0.016093	0.03607
0.282	-0.045614	41.736	53.061	-0.032512	-0.017093	0.035291
0.284	-0.056561	41.864	51.548	-0.032774	-0.018092	0.034512
0.286	-0.069874	41.986	50.036	-0.033036	-0.019092	0.033732
0.288	-0.087117	42.101	48.443	-0.032334	-0.019412	0.032448
0.29	-0.10967	42.214	46.849	-0.031633	-0.019732	0.031163
0.292	-0.13826	42.323	45.209	-0.030931	-0.020052	0.029879
0.294	-0.17262	42.432	43.52	-0.03023	-0.020372	0.028594
0.296	-0.21125	42.541	41.832	-0.029528	-0.020692	0.02731
0.298	-0.25147	42.652	40.07	-0.028636	-0.020525	0.025335
0.3	-0.28972	42.765	38.308	-0.027744	-0.020358	0.023361
0.302	-0.32204	42.881	36.538	-0.026852	-0.02019	0.021386
0.304	-0.34472	43	34.76	-0.02596	-0.020023	0.019412
0.306	-0.35494	43.123	32.981	-0.025068	-0.019856	0.017437
0.308	-0.35124	43.25	31.266	-0.02464	-0.01966	0.014863
0.31	-0.33388	43.38	29.551	-0.024212	-0.019465	0.012289
0.312	-0.30479	43.514	27.907	-0.023784	-0.01927	0.0097142
0.314	-0.26728	43.649	26.334	-0.023356	-0.019075	0.0071398
0.316	-0.22549	43.786	24.761	-0.022928	-0.018879	0.0045655
0.318	-0.18377	43.921	23.383	-0.022791	-0.018725	0.0018921
0.32	-0.14596	44.056	22.004	-0.022654	-0.018571	-0.00078129
0.322	-0.11484	44.187	20.729	-0.022517	-0.018417	-0.0034547
0.324	-0.091804	44.313	19.557	-0.02238	-0.018263	-0.0061281
0.326	-0.076807	44.43	18.385	-0.022243	-0.018109	-0.0088015
0.328	-0.068568	44.539	17.387	-0.021789	-0.017576	-0.010905
0.33	-0.064988	44.635	16.389	-0.021335	-0.017043	-0.013009
0.332	-0.06368	44.717	15.448	-0.020882	-0.01651	-0.015113
0.334	-0.062488	44.78	14.564	-0.020428	-0.015977	-0.017217
0.336	-0.059889	44.825	13.679	-0.019975	-0.015444	-0.019321
0.338	-0.055213	44.845	12.839	-0.018857	-0.014229	-0.020411
0.34	-0.048644	44.842	11.999	-0.017738	-0.013013	-0.021502
0.342	-0.041027	44.809	11.155	-0.01662	-0.011797	-0.022593
0.344	-0.033541	44.747	10.305	-0.015501	-0.010582	-0.023684
0.346	-0.027334	44.651	9.4557	-0.014383	-0.0093659	-0.024775
0.348	-0.023195	44.52	8.5692	-0.012701	-0.0077833	-0.024874
0.35	-0.021356	44.351	7.6827	-0.011019	-0.0062008	-0.024974
0.352	-0.021445	44.142	6.7781	-0.0093365	-0.0046182	-0.025074
0.354	-0.022604	43.89	5.8553	-0.0076543	-0.0030356	-0.025173
0.356	-0.023716	43.595	4.9326	-0.0059721	-0.0014531	-0.025273
0.358	-0.023692	43.254	3.9928	-0.0040731	-0.00017835	-0.02477
0.36	-0.021736	42.866	3.0531	-0.0021742	0.0010964	-0.024266
0.362	-0.017531	42.43	2.1161	-0.00027521	0.0023711	-0.023763
0.364	-0.011292	41.944	1.182	0.0016237	0.0036458	-0.02326
0.366	-0.0036964	41.408	0.24794	0.0035227	0.0049205	-0.022756
0.368	0.0042935	40.822	-0.66735	0.0052878	0.0055275	-0.022066
0.37	0.011662	40.183	-1.5827	0.007053	0.0061345	-0.021376
0.372	0.017575	39.494	-2.4898	0.0088181	0.0067416	-0.020686
0.374	0.021549	38.753	-3.3889	0.010583	0.0073486	-0.019995
0.376	0.023524	37.96	-4.2879	0.012348	0.0079556	-0.019305
0.378	0.023839	37.117	-5.1866	0.013824	0.0081182	-0.018682
0.38	0.023108	36.223	-6.0852	0.0153	0.0082808	-0.01806
0.382	0.022041	35.28	-6.9938	0.016776	0.0084434	-0.017437
0.384	0.021269	34.288	-7.9124	0.018252	0.008606	-0.016814
0.386	0.021201	33.249	-8.831	0.019728	0.0087686	-0.016191
0.388	0.021947	32.163	-9.7835	0.020992	0.0089475	-0.01585
0.39	0.02334	31.034	-10.736	0.022257	0.0091264	-0.01551
0.392	0.025017	29.86	-11.705	0.023522	0.0093053	-0.015169
0.394	0.026545	28.646	-12.691	0.024786	0.0094842	-0.014828
0.396	0.027553	27.391	-13.677	0.026051	0.0096631	-0.014487
0.398	0.027836	26.099	-14.68	0.027171	0.010072	-0.014669
0.4	0.027393	24.771	-15.682	0.028291	0.010481	-0.014851
0.402	0.026408	23.411	-16.678	0.029411	0.01089	-0.015033
0.404	0.025171	22.019	-17.666	0.030531	0.011299	-0.015215
0.406	0.023982	20.599	-18.654	0.031651	0.011708	-0.015397
0.408	0.023043	19.152	-19.592	0.032476	0.012132	-0.016101
0.41	0.0224	17.684	-20.529	0.033301	0.012557	-0.016805
0.412	0.021926	16.194	-21.425	0.034126	0.012982	-0.017509
0.414	0.021371	14.687	-22.278	0.03495	0.013406	-0.018213
0.416	0.020443	13.165	-23.132	0.035775	0.013831	-0.018917
0.418	0.018913	11.633	-23.88	0.036179	0.013818	-0.019691
0.42	0.016701	10.092	-24.628	0.036583	0.013806	-0.020465
0.422	0.013919	8.5486	-25.321	0.036987	0.013793	-0.021239
0.424	0.010863	7.0024	-25.959	0.037392	0.01378	-0.022013
0.426	0.0079372	5.4611	-26.597	0.037796	0.013768	-0.022787
0.428	0.0055516	3.9247	-27.14	0.038058	0.013041	-0.023039
0.43	0.0040007	2.4013	-27.683	0.038321	0.012315	-0.023292
0.432	0.0033706	0.89086	-28.196	0.038583	0.011589	-0.023545
0.434	0.0034957	-0.59805	-28.677	0.038846	0.010863	-0.023797
0.436	0.0039811	-2.0654	-29.158	0.039108	0.010137	-0.02405
0.438	0.0042868	-3.5022	-29.624	0.039704	0.0089493	-0.023582
0.44	0.0038584	-4.9085	-30.09	0.0403	0.0077619	-0.023114
0.442	0.002267	-6.2748	-30.575	0.040896	0.0065746	-0.022645
0.444	-0.00067553	-7.601	-31.078	0.041491	0.0053873	-0.022177
0.446	-0.0048572	-8.8777	-31.581	0.042087	0.0041999	-0.021708
0.448	-0.0098776	-10.105	-32.167	0.043004	0.0032032	-0.020805
0.45	-0.015133	-11.272	-32.753	0.04392	0.0022065	-0.019901
0.452	-0.01996	-12.38	-33.395	0.044837	0.0012098	-0.018998
0.454	-0.023786	-13.419	-34.095	0.045753	0.00021313	-0.018094
0.456	-0.026275	-14.388	-34.794	0.04667	-0.00078357	-0.017191
0.458	-0.027405	-15.279	-35.611	0.047259	-0.0011576	-0.016232
0.46	-0.027481	-16.092	-36.428	0.047848	-0.0015317	-0.015273
0.462	-0.027063	-16.816	-37.292	0.048437	-0.0019058	-0.014314
0.464	-0.02683	-17.454	-38.203	0.049027	-0.0022798	-0.013355
0.466	-0.027422	-17.995	-39.115	0.049616	-0.0026539	-0.012396
0.468	-0.029281	-18.441	-40.073	0.049382	-0.0025965	-0.011524
0.47	-0.032552	-18.785	-41.032	0.049149	-0.002539	-0.010652
0.472	-0.037045	-19.026	-41.985	0.048916	-0.0024816	-0.0097803
0.474	-0.042292	-19.158	-42.933	0.048682	-0.0024242	-0.0089086
0.476	-0.047659	-19.182	-43.881	0.048449	-0.0023668	-0.0080369
0.478	-0.05251	-19.093	-44.764	0.047745	-0.002346	-0.0072386
0.48	-0.056357	-18.892	-45.648	0.04704	-0.0023251	-0.0064404
0.482	-0.058984	-18.576	-46.483	0.046336	-0.0023042	-0.0056421
0.484	-0.060491	-18.144	-47.27	0.045632	-0.0022834	-0.0048439
0.486	-0.061265	-17.596	-48.057	0.044928	-0.0022625	-0.0040456
0.488	-0.061877	-16.932	-48.744	0.044509	-0.0024381	-0.0034065
0.49	-0.06293	-16.154	-49.431	0.044089	-0.0026137	-0.0027673
0.492	-0.064903	-15.26	-50.081	0.04367	-0.0027893	-0.0021282
0.494	-0.068028	-14.254	-50.693	0.043251	-0.0029649	-0.001489
0.496	-0.072223	-13.136	-51.306	0.042832	-0.0031405	-0.00084987
0.498	-0.077115	-11.911	-51.887	0.042839	-0.0033143	-0.00056164
0.5	-0.082124	-10.579	-52.467	0.042846	-0.0034882	-0.00027341
0.502	-0.086611	-9.1456	-53.055	0.042853	-0.003662	1.4817e-05
0.504	-0.090037	-7.6112	-53.648	0.04286	-0.0038358	0.00030305
0.506	-0.092092	-5.9835	-54.242	0.042867	-0.0040096	0.00059128
0.508	-0.092778	-4.2625	-54.878	0.042642	-0.0039763	0.0004871
0.51	-0.092404	-2.4572	-55.514	0.042417	-0.0039429	0.00038293
0.512	-0.09151	-0.56749	-56.174	0.042193	-0.0039096	0.00027876
0.514	-0.090732	1.3969	-56.858	0.041968	-0.0038763	0.00017458
0.516	-0.090639	3.4358	-57.541	0.041743	-0.0038429	7.0409e-05
0.518	-0.091594	5.5392	-58.253	0.040724	-0.0035338	-0.00021325
0.52	-0.093657	7.707	-58.964	0.039706	-0.0032247	-0.00049692
0.522	-0.096567	9.9288	-59.672	0.038687	-0.0029156	-0.00078058
0.524	-0.0998	12.205	-60.374	0.037668	-0.0026065	-0.0010642
0.526	-0.1027	14.524	-61.077	0.036649	-0.0022974	-0.0013479
0.528	-0.10462	16.888	-61.731	0.035173	-0.0017064	-0.0015917
0.53	-0.10511	19.286	-62.384	0.033696	-0.0011154	-0.0018355
0.532	-0.10397	21.718	-62.995	0.032219	-0.00052431	-0.0020793
0.534	-0.10136	24.176	-63.564	0.030742	6.674e-05	-0.0023231
0.536	-0.097709	26.659	-64.133	0.029265	0.00065779	-0.0025669
0.538	-0.093623	29.16	-64.596	0.028314	0.0013999	-0.0028099
0.54	-0.089746	31.679	-65.058	0.027362	0.002142	-0.003053
0.542	-0.086599	34.21	-65.463	0.02641	0.0028841	-0.003296
0.544	-0.084452	36.753	-65.809	0.025458	0.0036262	-0.003539
0.546	-0.083263	39.302	-66.155	0.024507	0.0043684	-0.003782
0.548	-0.082692	41.858	-66.384	0.024781	0.004874	-0.0042379
0.55	-0.082188	44.417	-66.614	0.025056	0.0053796	-0.0046938
0.552	-0.081124	46.98	-66.789	0.02533	0.0058852	-0.0051497
0.554	-0.078952	49.544	-66.91	0.025605	0.0063908	-0.0056056
0.556	-0.075331	52.109	-67.031	0.02588	0.0068964	-0.0060616
0.558	-0.070219	54.676	-67.064	0.027224	0.0067606	-0.0067685
0.56	-0.063879	57.243	-67.097	0.028568	0.0066249	-0.0074755
0.562	-0.056815	59.811	-67.105	0.029913	0.0064892	-0.0081824
0.564	-0.049661	62.38	-67.088	0.031257	0.0063535	-0.0088894
0.566	-0.043031	64.953	-67.072	0.032602	0.0062178	-0.0095963
0.568	-0.037388	67.527	-67.068	0.034152	0.0055365	-0.010212
0.57	-0.032938	70.107	-67.063	0.035702	0.0048552	-0.010828
0.572	-0.029604	72.691	-67.107	0.037253	0.0041738	-0.011444
0.574	-0.027054	75.283	-67.198	0.038803	0.0034925	-0.012059
0.576	-0.024797	77.882	-67.289	0.040353	0.0028112	-0.012675
0.578	-0.022313	80.49	-67.561	0.040985	0.0023755	-0.012797
0.58	-0.019185	83.108	-67.833	0.041616	0.0019398	-0.012919
0.582	-0.015195	85.738	-68.226	0.042247	0.0015042	-0.013041
0.584	-0.010381	88.38	-68.74	0.042878	0.0010685	-0.013163
0.586	-0.0050242	91.036	-69.254	0.043509	0.00063281	-0.013285
0.588	0.00042707	93.705	-70.009	0.042337	0.0013581	-0.013177
0.59	0.0054702	96.389	-70.765	0.041165	0.0020835	-0.01307
0.592	0.0096711	99.088	-71.599	0.039993	0.0028088	-0.012962
0.594	0.01277	101.8	-72.51	0.038821	0.0035341	-0.012855
0.596	0.014743	104.53	-73.422	0.037649	0.0042595	-0.012747
0.598	0.015812	107.27	-74.314	0.034709	0.0061442	-0.013567
0.6	0.016387	110.03	-75.207	0.03177	0.0080289	-0.014387
0.602	0.01697	112.8	-75.973	0.028831	0.0099137	-0.015207
0.604	0.018041	115.58	-76.611	0.025892	0.011798	-0.016027
0.606	0.019947	118.37	-77.25	0.022952	0.013683	-0.016847
0.608	0.022828	121.17	-77.396	0.019606	0.015333	-0.019507
0.61	0.026585	123.98	-77.542	0.01626	0.016982	-0.022167
0.612	0.030915	126.79	-77.358	0.012914	0.018632	-0.024827
0.614	0.03538	129.6	-76.842	0.0095678	0.020282	-0.027487
0.616	0.039505	132.41	-76.327	0.0062216	0.021931	-0.030147
0.618	0.042889	135.22	-75.114	0.0044795	0.021513	-0.03362
0.62	0.045284	138.02	-73.902	0.0027375	0.021094	-0.037093
0.622	0.046638	140.81	-72.405	0.00099542	0.020675	-0.040566
0.624	0.047098	143.59	-70.625	-0.00074663	0.020256	-0.044039
0.626	0.046964	146.36	-68.844	-0.0024887	0.019838	-0.047513
0.628	0.046611	149.11	-66.777	-0.001374	0.016887	-0.048832
0.63	0.046407	151.84	-64.711	-0.00025929	0.013936	-0.050151
0.632	0.046633	154.55	-62.686	0.0008554	0.010986	-0.051471
0.634	0.047427	157.22	-60.704	0.0019701	0.0080351	-0.05279
0.636	0.048776	159.88	-58.722	0.0030848	0.0050844	-0.05411
0.638	0.050529	162.49	-57.192	0.0067157	0.0012818	-0.050891
0.64	0.052446	165.08	-55.663	0.010347	-0.0025209	-0.047673
0.642	0.054264	167.63	-54.493	0.013977	-0.0063236	-0.044454
0.644	0.055758	170.14	-53.684	0.017608	-0.010126	-0.041235
0.646	0.056787	172.61	-52.875	0.021239	-0.013929	-0.038017
0.648	0.057323	175.03	-52.885	0.025697	-0.016152	-0.031096
0.65	0.057442	177.41	-52.895	0.030154	-0.018375	-0.024174
0.652	0.057305	179.75	-53.268	0.034612	-0.020599	-0.017253
0.654	0.057112	182.04	-54.005	0.039069	-0.022822	-0.010332
0.656	0.057063	184.28	-54.741	0.043527	-0.025045	-0.0034112
0.658	0.05732	186.47	-55.955	0.046575	-0.024753	0.0035036
0.66	0.057982	188.62	-57.169	0.049622	-0.024461	0.010418
0.662	0.059078	190.71	-58.458	0.05267	-0.024168	0.017333
0.664	0.060574	192.75	-59.821	0.055718	-0.023876	0.024248
0.666	0.062384	194.73	-61.184	0.058766	-0.023584	0.031163
0.668	0.064397	196.67	-62.383	0.058652	-0.021957	0.034669
0.67	0.066482	198.55	-63.581	0.058539	-0.020329	0.038174
0.672	0.068511	200.37	-64.589	0.058426	-0.018702	0.04168
0.674	0.070362	202.15	-65.405	0.058312	-0.017075	0.045186
0.676	0.071924	203.87	-66.222	0.058199	-0.015448	0.048692
