t	ekg	optical	pressure	accel_x	accel_y	accel_z
0	0.05779	78.617	2.4155	0.002504	-0.00045387	3.3192e-05
0.002	0.056106	78.415	2.3244	0.0019843	-2.2898e-05	-3.1343e-05
0.004	0.054773	78.214	2.2333	0.0014647	0.00040808	-9.5879e-05
0.006	0.053965	77.981	2.1421	0.000945	0.00083905	-0.00016042
0.008	0.053727	77.717	2.0766	0.00042533	0.00127	-0.00022495
0.01	0.053981	77.425	2.011	-9.4327e-05	0.001701	-0.00028949
0.012	0.054545	77.105	1.9641	-0.00061399	0.002132	-0.00035402
0.014	0.055181	76.762	1.936	-0.0011336	0.002563	-0.00041856
0.016	0.055656	76.395	1.9078	-0.0016533	0.0029939	-0.00048309
0.018	0.0558	76.01	1.9226	-0.0021587	0.0033164	-0.00046561
0.02	0.055537	75.606	1.9374	-0.0026641	0.0036388	-0.00044813
0.022	0.054903	75.19	1.9715	-0.0031695	0.0039612	-0.00043065
0.024	0.054024	74.761	2.0247	-0.0036749	0.0042837	-0.00041317
0.026	0.053078	74.325	2.0779	-0.0041803	0.0046061	-0.00039569
0.028	0.052243	73.882	2.1536	-0.0045377	0.0046539	-0.0002429
0.03	0.051652	73.438	2.2292	-0.0048952	0.0047016	-9.0116e-05
0.032	0.051356	72.993	2.3038	-0.0052526	0.0047494	6.2672e-05
0.034	0.051317	72.553	2.3772	-0.00561	0.0047972	0.00021546
0.036	0.051419	72.116	2.4506	-0.0059675	0.004845	0.00036825
0.038	0.051506	71.689	2.4948	-0.0060963	0.0046262	0.00067307
0.04	0.051422	71.269	2.539	-0.0062251	0.0044074	0.0009779
0.042	0.051054	70.862	2.558	-0.0063539	0.0041886	0.0012827
0.044	0.05036	70.467	2.5517	-0.0064827	0.0039698	0.0015876
0.046	0.04937	70.085	2.5455	-0.0066114	0.003751	0.0018924
0.048	0.048175	69.718	2.4801	-0.0063836	0.0034284	0.0022272
0.05	0.046893	69.364	2.4147	-0.0061558	0.0031058	0.002562
0.052	0.045627	69.025	2.3232	-0.005928	0.0027832	0.0028967
0.054	0.044438	68.7	2.2057	-0.0057002	0.0024606	0.0032315
0.056	0.043322	68.388	2.0882	-0.0054724	0.0021379	0.0035663
0.058	0.042217	68.087	1.9389	-0.0048972	0.0018883	0.0036403
0.06	0.041024	67.797	1.7896	-0.004322	0.0016387	0.0037142
0.062	0.03965	67.514	1.6378	-0.0037467	0.0013891	0.0037881
0.064	0.038043	67.239	1.4837	-0.0031715	0.0011395	0.0038621
0.066	0.036225	66.966	1.3296	-0.0025963	0.00088985	0.003936
0.068	0.0343	66.697	1.196	-0.0019963	0.00080936	0.003522
0.07	0.032436	66.425	1.0623	-0.0013962	0.00072886	0.003108
0.072	0.030832	66.151	0.94712	-0.0007962	0.00064837	0.0026941
0.074	0.029659	65.869	0.85035	-0.00019616	0.00056788	0.0022801
0.076	0.029012	65.579	0.75358	0.00040387	0.00048738	0.0018661
0.078	0.028872	65.276	0.69817	0.00064823	0.00053036	0.0011347
0.08	0.029095	64.96	0.64275	0.0008926	0.00057333	0.00040338
0.082	0.029439	64.625	0.60508	0.001137	0.0006163	-0.00032797
0.084	0.029613	64.272	0.58515	0.0013813	0.00065927	-0.0010593
0.086	0.029345	63.897	0.56522	0.0016257	0.00070224	-0.0017907
0.088	0.028459	63.5	0.56954	0.0014876	0.00067813	-0.0023025
0.09	0.026927	63.077	0.57386	0.0013494	0.00065402	-0.0028144
0.092	0.024888	62.63	0.58495	0.0012113	0.00062991	-0.0033262
0.094	0.022634	62.155	0.6028	0.0010732	0.00060581	-0.0038381
0.096	0.02055	61.654	0.62065	0.00093506	0.0005817	-0.00435
0.098	0.019034	61.127	0.6459	0.00071876	0.0003447	-0.0042394
0.1	0.018403	60.574	0.67116	0.00050246	0.00010771	-0.0041289
0.102	0.018816	59.996	0.69976	0.00028616	-0.00012929	-0.0040184
0.104	0.020233	59.393	0.73171	6.9863e-05	-0.00036628	-0.0039078
0.106	0.022413	58.769	0.76366	-0.00014644	-0.00060328	-0.0037973
0.108	0.024961	58.124	0.80484	-0.00018416	-0.00093028	-0.0032185
0.11	0.027415	57.463	0.84603	-0.00022189	-0.0012573	-0.0026397
0.112	0.02934	56.786	0.89294	-0.00025961	-0.0015843	-0.0020609
0.114	0.030429	56.099	0.94559	-0.00029734	-0.0019113	-0.0014821
0.116	0.030568	55.401	0.99824	-0.00033506	-0.0022383	-0.00090332
0.118	0.029855	54.701	1.0615	-0.00016126	-0.0023784	-0.00039579
0.12	0.028582	53.998	1.1247	1.2535e-05	-0.0025185	0.00011174
0.122	0.027163	53.3	1.191	0.00018633	-0.0026586	0.00061928
0.124	0.026043	52.606	1.2603	0.00036013	-0.0027987	0.0011268
0.126	0.025606	51.925	1.3296	0.00053393	-0.0029388	0.0016343
0.128	0.026096	51.256	1.3982	0.00083532	-0.0028121	0.0017049
0.13	0.027586	50.607	1.4669	0.0011367	-0.0026853	0.0017754
0.132	0.029976	49.978	1.5323	0.0014381	-0.0025585	0.0018459
0.134	0.033042	49.375	1.5944	0.0017395	-0.0024318	0.0019165
0.136	0.036502	48.799	1.6564	0.0020409	-0.002305	0.001987
0.138	0.040093	48.255	1.7084	0.0023009	-0.0021028	0.0017304
0.14	0.043625	47.743	1.7603	0.0025609	-0.0019006	0.0014738
0.142	0.047007	47.267	1.8068	0.0028209	-0.0016983	0.0012171
0.144	0.050236	46.828	1.8477	0.003081	-0.0014961	0.00096051
0.146	0.053354	46.426	1.8886	0.003341	-0.0012939	0.00070388
0.148	0.056388	46.063	1.9179	0.0032852	-0.0011978	0.0004767
0.15	0.059295	45.738	1.9473	0.0032295	-0.0011018	0.00024952
0.152	0.061931	45.453	1.9695	0.0031737	-0.0010057	2.2341e-05
0.154	0.064054	45.205	1.9846	0.003118	-0.00090968	-0.00020484
0.156	0.065375	44.994	1.9997	0.0030622	-0.00081363	-0.00043202
0.158	0.065628	44.817	1.9943	0.0025613	-0.00080243	-0.00043605
0.16	0.064656	44.674	1.9889	0.0020604	-0.00079123	-0.00044008
0.162	0.062485	44.561	1.9688	0.0015595	-0.00078003	-0.00044411
0.164	0.059351	44.476	1.9341	0.0010587	-0.00076883	-0.00044814
0.166	0.055682	44.414	1.8993	0.00055777	-0.00075764	-0.00045216
0.168	0.052024	44.375	1.8277	-7.1497e-05	-0.00071581	-0.00032969
0.17	0.048918	44.351	1.7561	-0.00070076	-0.00067398	-0.00020721
0.172	0.046777	44.342	1.6654	-0.00133	-0.00063215	-8.4729e-05
0.174	0.045766	44.341	1.5555	-0.0019593	-0.00059032	3.7749e-05
0.176	0.045742	44.347	1.4456	-0.0025886	-0.00054849	0.00016023
0.178	0.046254	44.351	1.3055	-0.0028237	-0.0004342	0.00021824
0.18	0.046626	44.355	1.1654	-0.0030589	-0.00031992	0.00027625
0.182	0.04609	44.35	1.0191	-0.0032941	-0.00020564	0.00033426
0.184	0.043966	44.335	0.86645	-0.0035293	-9.1352e-05	0.00039228
0.186	0.039817	44.304	0.71383	-0.0037644	2.2932e-05	0.00045029
0.188	0.033567	44.257	0.57153	-0.0034819	0.0001553	0.00036586
0.19	0.025535	44.186	0.42924	-0.0031993	0.00028767	0.00028144
0.192	0.016381	44.093	0.30255	-0.0029168	0.00042004	0.00019702
0.194	0.0069727	43.972	0.19144	-0.0026342	0.00055241	0.00011259
0.196	-0.0017963	43.824	0.080344	-0.0023516	0.00068478	2.8168e-05
0.198	-0.0092046	43.644	0.011822	-0.0019196	0.00074464	-0.00013999
0.2	-0.014855	43.434	-0.0567	-0.0014876	0.00080451	-0.00030814
0.202	-0.01875	43.191	-0.10525	-0.0010556	0.00086438	-0.00047629
0.204	-0.021282	42.916	-0.13384	-0.00062361	0.00092424	-0.00064445
0.206	-0.02312	42.608	-0.16243	-0.00019161	0.00098411	-0.0008126
0.208	-0.025054	42.268	-0.16735	6.9306e-05	0.000898	-0.00092848
0.21	-0.027805	41.898	-0.17226	0.00033022	0.00081189	-0.0010444
0.212	-0.031888	41.498	-0.17758	0.00059114	0.00072577	-0.0011602
0.214	-0.03754	41.072	-0.18328	0.00085205	0.00063966	-0.0012761
0.216	-0.044758	40.619	-0.18899	0.001113	0.00055355	-0.001392
0.218	-0.053431	40.144	-0.21979	0.001239	0.00032066	-0.001295
0.22	-0.063528	39.649	-0.25058	0.0013651	8.7778e-05	-0.0011981
0.222	-0.075296	39.137	-0.30196	0.0014912	-0.00014511	-0.0011011
0.224	-0.089404	38.611	-0.37391	0.0016173	-0.00037799	-0.0010042
0.226	-0.10696	38.075	-0.44587	0.0017433	-0.00061087	-0.0009072
0.228	-0.12938	37.531	-0.56216	0.0018352	-0.00087519	-0.0005473
0.23	-0.15813	36.985	-0.67845	0.0019271	-0.0011395	-0.0001874
0.232	-0.19434	36.438	-0.81215	0.0020191	-0.0014038	0.00017251
0.234	-0.23836	35.895	-0.96326	0.002111	-0.0016682	0.00053241
0.236	-0.28946	35.358	-1.1144	0.0022029	-0.0019325	0.00089231
0.238	-0.34557	34.831	-1.2827	0.0021795	-0.0020616	0.0012926
0.24	-0.40334	34.317	-1.451	0.0021561	-0.0021907	0.001693
0.242	-0.45838	33.818	-1.6183	0.0021327	-0.0023199	0.0020933
0.244	-0.50578	33.337	-1.7847	0.0021093	-0.002449	0.0024936
0.246	-0.54078	32.876	-1.9511	0.002086	-0.0025782	0.0028939
0.248	-0.55946	32.437	-2.1008	0.0019109	-0.0025341	0.0029605
0.25	-0.55938	32.021	-2.2505	0.0017359	-0.0024901	0.0030271
0.252	-0.54008	31.628	-2.388	0.0015608	-0.002446	0.0030937
0.254	-0.50315	31.261	-2.5135	0.0013858	-0.0024019	0.0031603
0.256	-0.45213	30.919	-2.6389	0.0012107	-0.0023579	0.0032269
0.258	-0.39202	30.602	-2.7391	0.0010943	-0.0022913	0.0028497
0.26	-0.32855	30.309	-2.8392	0.00097794	-0.0022248	0.0024726
0.262	-0.26739	30.039	-2.928	0.00086155	-0.0021582	0.0020954
0.264	-0.21337	29.793	-3.0053	0.00074516	-0.0020917	0.0017182
0.266	-0.16988	29.566	-3.0827	0.00062877	-0.0020251	0.0013411
0.268	-0.1385	29.359	-3.1399	0.00074348	-0.0020539	0.00085931
0.27	-0.11899	29.168	-3.197	0.00085819	-0.0020828	0.00037757
0.272	-0.10954	28.992	-3.2445	0.0009729	-0.0021116	-0.00010418
0.274	-0.10727	28.827	-3.2824	0.0010876	-0.0021405	-0.00058592
0.276	-0.10883	28.672	-3.3203	0.0012023	-0.0021693	-0.0010677
0.278	-0.11108	28.521	-3.3386	0.001346	-0.0021859	-0.0012137
0.28	-0.11152	28.375	-3.357	0.0014896	-0.0022025	-0.0013597
0.282	-0.10869	28.227	-3.366	0.0016333	-0.0022192	-0.0015058
0.284	-0.10218	28.078	-3.3658	0.0017769	-0.0022358	-0.0016518
0.286	-0.092524	27.921	-3.3657	0.0019206	-0.0022524	-0.0017979
0.288	-0.080901	27.756	-3.3515	0.0017436	-0.0021096	-0.0015082
0.29	-0.068724	27.578	-3.3374	0.0015666	-0.0019667	-0.0012185
0.292	-0.057278	27.386	-3.321	0.0013896	-0.0018238	-0.0009288
0.294	-0.047437	27.175	-3.3022	0.0012126	-0.001681	-0.00063912
0.296	-0.039518	26.946	-3.2834	0.0010357	-0.0015381	-0.00034943
0.298	-0.0333	26.694	-3.2725	0.00055288	-0.001325	0.00011182
0.3	-0.028165	26.419	-3.2616	7.0095e-05	-0.0011119	0.00057307
0.302	-0.023334	26.118	-3.2609	-0.00041269	-0.00089872	0.0010343
0.304	-0.018107	25.791	-3.2704	-0.00089547	-0.00068559	0.0014956
0.306	-0.012065	25.435	-3.2798	-0.0013782	-0.00047245	0.0019568
0.308	-0.0051691	25.051	-3.3186	-0.0017722	-0.0003969	0.0022587
0.31	0.0022416	24.638	-3.3573	-0.0021662	-0.00032135	0.0025605
0.312	0.0095598	24.195	-3.4118	-0.0025602	-0.00024581	0.0028623
0.314	0.016085	23.724	-3.4822	-0.0029541	-0.00017026	0.0031642
0.316	0.021219	23.222	-3.5526	-0.0033481	-9.471e-05	0.003466
0.318	0.024619	22.693	-3.6505	-0.0033814	-0.0001578	0.0034389
0.32	0.026293	22.136	-3.7484	-0.0034147	-0.00022089	0.0034118
0.322	0.02659	21.553	-3.8556	-0.003448	-0.00028399	0.0033846
0.324	0.026114	20.944	-3.9722	-0.0034814	-0.00034708	0.0033575
0.326	0.025574	20.312	-4.0887	-0.0035147	-0.00041017	0.0033304
0.328	0.025612	19.656	-4.2132	-0.0032853	-0.00041646	0.0029818
0.33	0.026658	18.981	-4.3376	-0.0030559	-0.00042276	0.0026333
0.332	0.02884	18.286	-4.4613	-0.0028265	-0.00042906	0.0022848
0.334	0.031972	17.576	-4.5842	-0.0025972	-0.00043535	0.0019362
0.336	0.035617	16.849	-4.7071	-0.0023678	-0.00044165	0.0015877
0.338	0.039204	16.11	-4.8211	-0.0020504	-0.00032601	0.0010422
0.34	0.042176	15.359	-4.9351	-0.0017329	-0.00021037	0.00049667
0.342	0.044125	14.6	-5.0422	-0.0014155	-9.4736e-05	-4.8834e-05
0.344	0.044875	13.833	-5.1424	-0.0010981	2.0902e-05	-0.00059434
0.346	0.044511	13.062	-5.2426	-0.00078069	0.00013654	-0.0011398
0.348	0.043336	12.286	-5.3251	-0.00040609	0.00020336	-0.0016604
0.35	0.041787	11.509	-5.4076	-3.1482e-05	0.00027018	-0.0021809
0.352	0.040307	10.732	-5.4797	0.00034312	0.000337	-0.0027015
0.354	0.039243	9.9563	-5.5414	0.00071773	0.00040382	-0.003222
0.356	0.038761	9.1831	-5.6032	0.0010923	0.00047064	-0.0037426
0.358	0.038817	8.4149	-5.6424	0.0014362	0.00037777	-0.0039785
0.36	0.03919	7.6516	-5.6815	0.00178	0.00028491	-0.0042144
0.362	0.039547	6.8956	-5.7101	0.0021238	0.00019204	-0.0044503
0.364	0.039544	6.147	-5.7281	0.0024676	9.9177e-05	-0.0046862
0.366	0.038921	5.4077	-5.7461	0.0028114	6.3109e-06	-0.0049222
0.368	0.037564	4.6778	-5.7492	0.0028765	-8.2434e-05	-0.0047437
0.37	0.03554	3.9591	-5.7523	0.0029415	-0.00017118	-0.0045652
0.372	0.033066	3.2515	-5.754	0.0030066	-0.00025992	-0.0043868
0.374	0.030456	2.5567	-5.7541	0.0030716	-0.00034867	-0.0042083
0.376	0.028034	1.8746	-5.7542	0.0031367	-0.00043741	-0.0040299
0.378	0.02605	1.2069	-5.7667	0.0028462	-0.00031657	-0.0035595
0.38	0.024621	0.55349	-5.7793	0.0025557	-0.00019573	-0.0030892
0.382	0.023707	-0.084051	-5.8054	0.0022652	-7.4889e-05	-0.0026189
0.384	0.023128	-0.7057	-5.8451	0.0019747	4.5953e-05	-0.0021486
0.386	0.022613	-1.3098	-5.8848	0.0016842	0.00016679	-0.0016782
0.388	0.021878	-1.8962	-5.9602	0.0013366	0.00043586	-0.001221
0.39	0.020699	-2.4632	-6.0357	0.00098904	0.00070493	-0.00076379
0.392	0.018968	-3.0107	-6.1281	0.00064145	0.00097399	-0.00030657
0.394	0.016717	-3.5366	-6.2374	0.00029386	0.0012431	0.00015064
0.396	0.014105	-4.0409	-6.3467	-5.3733e-05	0.0015121	0.00060786
0.398	0.011375	-4.5212	-6.476	-0.0001585	0.001694	0.0007716
0.4	0.0087883	-4.9775	-6.6053	-0.00026328	0.0018759	0.00093534
0.402	0.0065574	-5.4072	-6.733	-0.00036805	0.0020578	0.0010991
0.404	0.004796	-5.8103	-6.8589	-0.00047282	0.0022397	0.0012628
0.406	0.0034957	-6.1839	-6.9848	-0.00057759	0.0024215	0.0014266
0.408	0.0025365	-6.528	-7.0803	-0.00053561	0.0023954	0.0012542
0.41	0.0017239	-6.8398	-7.1757	-0.00049362	0.0023693	0.0010819
0.412	0.00084581	-7.1191	-7.2441	-0.00045164	0.0023431	0.00090951
0.414	-0.00026636	-7.3631	-7.2853	-0.00040966	0.002317	0.00073716
0.416	-0.0016926	-7.5717	-7.3266	-0.00036767	0.0022909	0.0005648
0.418	-0.0034032	-7.7421	-7.2994	-0.00044464	0.0020962	0.00030661
0.42	-0.0052668	-7.8742	-7.2721	-0.00052161	0.0019014	4.8417e-05
0.422	-0.0070851	-7.9655	-7.2096	-0.00059858	0.0017067	-0.00020978
0.424	-0.0086455	-8.0158	-7.1118	-0.00067555	0.001512	-0.00046797
0.426	-0.0097755	-8.023	-7.0141	-0.00075252	0.0013173	-0.00072616
0.428	-0.010386	-7.9869	-6.8551	-0.00091835	0.0010337	-0.00076972
0.43	-0.010491	-7.9058	-6.696	-0.0010842	0.0007502	-0.00081329
0.432	-0.010204	-7.7796	-6.5147	-0.00125	0.00046665	-0.00085685
0.434	-0.0097041	-7.6071	-6.3112	-0.0014158	0.00018311	-0.00090041
0.436	-0.0091874	-7.3882	-6.1076	-0.0015817	-0.00010043	-0.00094397
0.438	-0.00882	-7.1224	-5.8782	-0.0015706	-0.00034361	-0.00077178
0.44	-0.0086963	-6.8097	-5.6489	-0.0015596	-0.00058679	-0.0005996
0.442	-0.0088166	-6.4501	-5.4149	-0.0015486	-0.00082997	-0.00042741
0.444	-0.0090935	-6.0437	-5.1762	-0.0015376	-0.0010731	-0.00025522
0.446	-0.0093799	-5.5912	-4.9376	-0.0015266	-0.0013163	-8.3037e-05
0.448	-0.0095101	-5.0928	-4.7015	-0.0012922	-0.001313	1.0341e-05
0.45	-0.0093477	-4.5499	-4.4653	-0.0010579	-0.0013096	0.00010372
0.452	-0.0088229	-3.9626	-4.2338	-0.00082358	-0.0013063	0.0001971
0.454	-0.0079492	-3.3332	-4.007	-0.00058925	-0.0013029	0.00029047
0.456	-0.0068219	-2.6616	-3.7802	-0.00035492	-0.0012996	0.00038385
0.458	-0.0055938	-1.9509	-3.5661	-0.00016571	-0.00097018	0.00022319
0.46	-0.0044335	-1.2011	-3.3519	2.35e-05	-0.00064078	6.2525e-05
0.462	-0.0034828	-0.41562	-3.1448	0.00021271	-0.00031139	-9.8139e-05
0.464	-0.0028226	0.40545	-2.9446	0.00040192	1.7999e-05	-0.0002588
0.466	-0.0024552	1.2581	-2.7445	0.00059113	0.00034739	-0.00041947
0.468	-0.0023072	2.1423	-2.5587	0.00054732	0.00073893	-0.00063378
0.47	-0.0022512	3.0538	-2.3729	0.0005035	0.0011305	-0.0008481
0.472	-0.0021413	3.9924	-2.194	0.00045969	0.001522	-0.0010624
0.474	-0.0018532	4.9535	-2.0219	0.00041588	0.0019135	-0.0012767
0.476	-0.0013145	5.9372	-1.8499	0.00037206	0.0023051	-0.001491
0.478	-0.00052103	6.9385	-1.6899	0.00024516	0.0023519	-0.0014775
0.48	0.00046827	7.9576	-1.53	0.00011825	0.0023988	-0.0014639
0.482	0.0015532	8.9896	-1.3745	-8.6514e-06	0.0024456	-0.0014503
0.484	0.0026247	10.034	-1.2236	-0.00013556	0.0024925	-0.0014367
0.486	0.0036002	11.087	-1.0726	-0.00026246	0.0025393	-0.0014231
0.488	0.0044511	12.148	-0.92735	-0.00023716	0.0021775	-0.0012316
0.49	0.0052147	13.213	-0.78206	-0.00021187	0.0018157	-0.0010401
0.492	0.0059858	14.281	-0.63834	-0.00018657	0.0014539	-0.00084859
0.494	0.0068914	15.348	-0.49621	-0.00016127	0.0010921	-0.00065708
0.496	0.0080568	16.415	-0.35408	-0.00013597	0.00073027	-0.00046557
0.498	0.0095696	17.476	-0.21484	6.597e-06	0.00035534	-0.00038207
0.5	0.011453	18.532	-0.075594	0.00014917	-1.9581e-05	-0.00029857
0.502	0.013657	19.579	0.06106	0.00029173	-0.00039451	-0.00021507
0.504	0.016067	20.618	0.19513	0.0004343	-0.00076943	-0.00013157
0.506	0.018535	21.644	0.3292	0.00057687	-0.0011444	-4.8064e-05
0.508	0.02091	22.658	0.45432	0.00061516	-0.0011572	-0.00015219
0.51	0.023084	23.657	0.57945	0.00065346	-0.0011701	-0.00025632
0.512	0.025016	24.64	0.69855	0.00069175	-0.001183	-0.00036044
0.514	0.026739	25.606	0.81163	0.00073004	-0.0011958	-0.00046457
0.516	0.028354	26.553	0.92471	0.00076833	-0.0012087	-0.0005687
0.518	0.029994	27.48	1.0256	0.000668	-0.00094253	-0.00064073
0.52	0.031793	28.386	1.1264	0.00056767	-0.00067635	-0.00071277
0.522	0.033837	29.269	1.223	0.00046734	-0.00041018	-0.0007848
0.524	0.036139	30.131	1.3155	0.00036701	-0.000144	-0.00085684
0.526	0.038631	30.968	1.4079	0.00026668	0.00012218	-0.00092887
0.528	0.041172	31.78	1.4989	0.00022858	0.00033672	-0.00082084
0.53	0.043586	32.568	1.5899	0.00019047	0.00055127	-0.00071281
0.532	0.045706	33.329	1.6838	0.00015237	0.00076581	-0.00060478
0.534	0.047414	34.065	1.7807	0.00011426	0.00098036	-0.00049675
0.536	0.04868	34.773	1.8777	7.6154e-05	0.0011949	-0.00038872
0.538	0.049571	35.454	1.9847	0.00018452	0.0012664	-0.00024096
0.54	0.050243	36.108	2.0918	0.00029289	0.0013379	-9.3204e-05
0.542	0.050897	36.734	2.203	0.00040126	0.0014094	5.4552e-05
0.544	0.051737	37.332	2.3183	0.00050963	0.0014809	0.00020231
0.546	0.052915	37.902	2.4336	0.00061799	0.0015524	0.00035006
0.548	0.054487	38.444	2.5486	0.00069249	0.0016378	0.00036291
0.55	0.056399	38.958	2.6635	0.00076698	0.0017233	0.00037575
0.552	0.058491	39.444	2.7714	0.00084147	0.0018087	0.0003886
0.554	0.060536	39.902	2.8723	0.00091596	0.0018941	0.00040144
0.556	0.062289	40.332	2.9732	0.00099045	0.0019796	0.00041429
0.558	0.063549	40.736	3.0457	0.00088051	0.0020932	0.00035716
0.56	0.064206	41.112	3.1181	0.00077057	0.0022069	0.00030004
0.562	0.064276	41.461	3.1708	0.00066062	0.0023206	0.00024292
0.564	0.063892	41.784	3.204	0.00055068	0.0024342	0.0001858
0.566	0.063281	42.082	3.2371	0.00044073	0.0025479	0.00012868
0.568	0.062712	42.353	3.2275	0.00024531	0.0024793	0.00017309
0.57	0.06243	42.599	3.2179	4.9876e-05	0.0024107	0.00021749
0.572	0.062603	42.82	3.1893	-0.00014555	0.0023422	0.0002619
0.574	0.063284	43.017	3.1419	-0.00034098	0.0022736	0.0003063
0.576	0.064396	43.189	3.0945	-0.00053641	0.002205	0.00035071
0.578	0.065757	43.339	3.0211	-0.00065654	0.0018826	0.00047524
0.58	0.067123	43.464	2.9477	-0.00077667	0.0015602	0.00059977
0.582	0.068248	43.567	2.8691	-0.00089679	0.0012378	0.0007243
0.584	0.068941	43.646	2.7852	-0.0010169	0.00091538	0.00084883
0.586	0.069111	43.704	2.7013	-0.001137	0.00059298	0.00097336
0.588	0.068782	43.738	2.6218	-0.0011729	0.00028045	0.00096633
0.59	0.068087	43.751	2.5423	-0.0012088	-3.2071e-05	0.0009593
0.592	0.067225	43.741	2.4705	-0.0012446	-0.00034459	0.00095226
0.594	0.066415	43.709	2.4065	-0.0012805	-0.00065712	0.00094523
0.596	0.065833	43.655	2.3425	-0.0013164	-0.00096964	0.0009382
0.598	0.065581	43.579	2.2996	-0.0013213	-0.00098002	0.00070006
0.6	0.065654	43.48	2.2567	-0.0013263	-0.0009904	0.00046192
0.602	0.065958	43.358	2.2245	-0.0013313	-0.0010008	0.00022377
0.604	0.066337	43.213	2.2028	-0.0013363	-0.0010112	-1.437e-05
0.606	0.066619	43.045	2.1812	-0.0013412	-0.0010215	-0.00025251
0.608	0.066666	42.853	2.1765	-0.0013035	-0.00076147	-0.00053691
0.61	0.066413	42.638	2.1718	-0.0012657	-0.00050138	-0.0008213
0.612	0.065882	42.398	2.172	-0.0012279	-0.0002413	-0.0011057
0.614	0.065177	42.133	2.1772	-0.0011901	1.8784e-05	-0.0013901
0.616	0.064446	41.843	2.1823	-0.0011523	0.00027887	-0.0016745
0.618	0.06384	41.527	2.1892	-0.0010652	0.00054451	-0.0017321
0.62	0.063467	41.186	2.196	-0.00097799	0.00081016	-0.0017896
0.622	0.063355	40.819	2.1999	-0.00089081	0.0010758	-0.0018472
0.624	0.063444	40.427	2.2007	-0.00080364	0.0013415	-0.0019048
0.626	0.063605	40.008	2.2016	-0.00071647	0.0016071	-0.0019624
0.628	0.063672	39.563	2.1906	-0.00061328	0.0016973	-0.001738
0.63	0.063496	39.093	2.1797	-0.00051009	0.0017876	-0.0015136
0.632	0.062994	38.598	2.1616	-0.0004069	0.0018778	-0.0012892
0.634	0.06218	38.078	2.1364	-0.00030371	0.001968	-0.0010648
0.636	0.061172	37.534	2.1112	-0.00020052	0.0020583	-0.00084038
0.638	0.060165	36.967	2.0732	-4.7029e-05	0.0019702	-0.000541
