t	ekg	optical	pressure	accel_x	accel_y	accel_z
0.002	0.035922	96.018	0.24547	-0.0015224	0.0018323	0.00012261
0.004	0.035448	95.625	0.25742	-0.0017155	0.0019578	1.1047e-05
0.006	0.03616	95.232	0.26937	-0.0019086	0.0020833	-0.00010051
0.008	0.03817	94.796	0.28275	-0.0021017	0.0022087	-0.00021208
0.01	0.041354	94.316	0.29613	-0.0022948	0.0023342	-0.00032364
0.012	0.045396	93.79	0.31031	-0.0024879	0.0024597	-0.0004352
0.014	0.049857	93.216	0.3253	-0.002681	0.0025851	-0.00054676
0.016	0.054277	92.593	0.34028	-0.0028742	0.0027106	-0.00065832
0.018	0.058264	91.919	0.35624	-0.0029726	0.0028954	-0.00070484
0.02	0.061566	91.196	0.3722	-0.0030711	0.0030802	-0.00075136
0.022	0.064105	90.422	0.3879	-0.0031695	0.003265	-0.00079788
0.024	0.065957	89.598	0.40332	-0.003268	0.0034498	-0.0008444
0.026	0.067303	88.725	0.41874	-0.0033664	0.0036346	-0.00089092
0.028	0.06835	87.805	0.43156	-0.0032341	0.0037788	-0.00095085
0.03	0.069256	86.84	0.44437	-0.0031018	0.0039231	-0.0010108
0.032	0.070078	85.832	0.45488	-0.0029695	0.0040673	-0.0010707
0.034	0.070749	84.784	0.46309	-0.0028372	0.0042115	-0.0011307
0.036	0.071099	83.7	0.4713	-0.0027048	0.0043558	-0.0011906
0.038	0.070916	82.581	0.4737	-0.0023579	0.0042616	-0.0013369
0.04	0.07002	81.435	0.4761	-0.002011	0.0041674	-0.0014832
0.042	0.068335	80.263	0.47559	-0.0016641	0.0040732	-0.0016294
0.044	0.065936	79.071	0.47219	-0.0013172	0.003979	-0.0017757
0.046	0.063053	77.862	0.46878	-0.00097033	0.0038848	-0.001922
0.048	0.060036	76.644	0.46085	-0.00060991	0.0035423	-0.0021266
0.05	0.057268	75.417	0.45292	-0.00024948	0.0031997	-0.0023311
0.052	0.055071	74.191	0.44378	0.00011095	0.0028572	-0.0025357
0.054	0.053612	72.966	0.43344	0.00047137	0.0025147	-0.0027402
0.056	0.052837	71.751	0.42311	0.0008318	0.0021721	-0.0029448
0.058	0.052461	70.546	0.41264	0.00094033	0.0018205	-0.0030528
0.06	0.052009	69.359	0.40218	0.0010489	0.0014689	-0.0031609
0.062	0.050913	68.191	0.39253	0.0011574	0.0011173	-0.0032689
0.064	0.048634	67.049	0.38371	0.0012659	0.00076564	-0.0033769
0.066	0.044792	65.933	0.37489	0.0013744	0.00041402	-0.003485
0.068	0.039258	64.848	0.36856	0.0011649	0.00025042	-0.0033327
0.07	0.032201	63.794	0.36223	0.00095532	8.6809e-05	-0.0031804
0.072	0.024064	62.776	0.35712	0.00074576	-7.6797e-05	-0.0030281
0.074	0.01548	61.794	0.35322	0.0005362	-0.0002404	-0.0028758
0.076	0.0071428	60.848	0.34933	0.00032663	-0.00040401	-0.0027235
0.078	-0.00033314	59.94	0.34727	6.6088e-05	-0.00045614	-0.0023124
0.08	-0.0065386	59.068	0.34521	-0.00019446	-0.00050826	-0.0019012
0.082	-0.011342	58.234	0.34376	-0.00045501	-0.00056039	-0.0014901
0.084	-0.014901	57.434	0.34291	-0.00071555	-0.00061252	-0.001079
0.086	-0.017609	56.668	0.34207	-0.0009761	-0.00066465	-0.0006678
0.088	-0.019995	55.933	0.3422	-0.00095777	-0.00079071	-0.00020663
0.09	-0.022605	55.227	0.34233	-0.00093943	-0.00091678	0.00025455
0.092	-0.025903	54.546	0.34308	-0.0009211	-0.0010428	0.00071573
0.094	-0.030217	53.89	0.34444	-0.00090276	-0.0011689	0.0011769
0.096	-0.03575	53.25	0.34581	-0.00088443	-0.001295	0.0016381
0.098	-0.042654	52.627	0.34892	-0.0006072	-0.0014602	0.0018638
0.1	-0.051142	52.013	0.35204	-0.00032998	-0.0016255	0.0020896
0.102	-0.061608	51.408	0.35619	-5.2749e-05	-0.0017908	0.0023153
0.104	-0.074702	50.803	0.36137	0.00022448	-0.001956	0.0025411
0.106	-0.091332	50.198	0.36655	0.00050171	-0.0021213	0.0027668
0.108	-0.11256	49.584	0.37352	0.00070647	-0.0020768	0.0026044
0.11	-0.13941	48.962	0.38048	0.00091123	-0.0020323	0.0024419
0.112	-0.17258	48.323	0.38782	0.001116	-0.0019878	0.0022795
0.114	-0.21217	47.666	0.39554	0.0013207	-0.0019433	0.0021171
0.116	-0.25742	46.986	0.40327	0.0015255	-0.0018988	0.0019546
0.118	-0.30657	46.281	0.41021	0.0014788	-0.0015577	0.0015449
0.12	-0.35691	45.546	0.41715	0.0014322	-0.0012166	0.0011351
0.122	-0.40496	44.781	0.42296	0.0013855	-0.00087553	0.00072534
0.124	-0.44684	43.981	0.42762	0.0013388	-0.00053444	0.00031557
0.126	-0.47878	43.146	0.43229	0.0012921	-0.00019335	-9.4191e-05
0.128	-0.49763	42.274	0.43383	0.0011527	0.0001683	-0.00039199
0.13	-0.50138	41.364	0.43538	0.0010132	0.00052994	-0.00068979
0.132	-0.48944	40.416	0.43545	0.00087371	0.00089159	-0.00098759
0.134	-0.46284	39.43	0.43407	0.00073423	0.0012532	-0.0012854
0.136	-0.42412	38.407	0.43268	0.00059474	0.0016149	-0.0015832
0.138	-0.37696	37.347	0.42959	0.0005348	0.0016553	-0.0015284
0.14	-0.32575	36.253	0.4265	0.00047486	0.0016957	-0.0014736
0.142	-0.27493	35.124	0.42344	0.00041492	0.0017361	-0.0014188
0.144	-0.22847	33.967	0.42043	0.00035498	0.0017765	-0.001364
0.146	-0.18931	32.779	0.41742	0.00029504	0.0018169	-0.0013092
0.148	-0.15915	31.569	0.4161	0.00025625	0.0015252	-0.0010167
0.15	-0.13831	30.334	0.41477	0.00021747	0.0012334	-0.00072417
0.152	-0.12585	29.084	0.41466	0.00017868	0.00094161	-0.00043165
0.154	-0.11994	27.816	0.41576	0.00013989	0.00064983	-0.00013913
0.156	-0.11822	26.539	0.41685	0.00010111	0.00035806	0.0001534
0.158	-0.11831	25.253	0.41988	-2.3564e-05	4.6303e-05	0.00038825
0.16	-0.11814	23.966	0.42291	-0.00014824	-0.00026545	0.0006231
0.162	-0.11624	22.677	0.42614	-0.00027291	-0.0005772	0.00085795
0.164	-0.11191	21.393	0.42957	-0.00039758	-0.00088896	0.0010928
0.166	-0.10511	20.115	0.43299	-0.00052225	-0.0012007	0.0013277
0.168	-0.09633	18.849	0.43486	-0.00066136	-0.0012479	0.0013747
0.17	-0.08639	17.596	0.43672	-0.00080047	-0.001295	0.0014218
0.172	-0.076146	16.36	0.43704	-0.00093958	-0.0013421	0.0014689
0.174	-0.066309	15.142	0.43582	-0.0010787	-0.0013893	0.001516
0.176	-0.057308	13.945	0.4346	-0.0012178	-0.0014364	0.0015631
0.178	-0.049255	12.771	0.4299	-0.0012017	-0.0012335	0.0015365
0.18	-0.041996	11.621	0.4252	-0.0011856	-0.0010305	0.0015098
0.182	-0.035222	10.495	0.41924	-0.0011694	-0.00082761	0.0014832
0.184	-0.028601	9.3948	0.41204	-0.0011533	-0.00062467	0.0014566
0.186	-0.021899	8.3199	0.40484	-0.0011372	-0.00042173	0.00143
0.188	-0.015049	7.2696	0.39716	-0.00092844	-0.00021913	0.0014802
0.19	-0.0081699	6.244	0.38948	-0.00071968	-1.6533e-05	0.0015304
0.192	-0.0015217	5.2406	0.38271	-0.00051092	0.00018606	0.0015806
0.194	0.0045749	4.2595	0.37686	-0.00030216	0.00038866	0.0016309
0.196	0.0098362	3.2969	0.37101	-9.3403e-05	0.00059126	0.0016811
0.198	0.014099	2.3529	0.36866	0.00013969	0.00060326	0.0018087
0.2	0.017367	1.4225	0.36631	0.00037278	0.00061527	0.0019362
0.202	0.019817	0.50572	0.36593	0.00060587	0.00062727	0.0020638
0.204	0.021748	-0.40314	0.3675	0.00083896	0.00063927	0.0021914
0.206	0.023515	-1.3041	0.36908	0.001072	0.00065128	0.002319
0.208	0.025437	-2.2034	0.37363	0.001122	0.00055102	0.0023808
0.21	0.027725	-3.101	0.37818	0.001172	0.00045075	0.0024425
0.212	0.030441	-4.0032	0.38329	0.001222	0.00035049	0.0025043
0.214	0.03349	-4.91	0.38895	0.001272	0.00025023	0.0025661
0.216	0.036657	-5.8274	0.39461	0.001322	0.00014997	0.0026279
0.218	0.03967	-6.7553	0.39945	0.0011689	0.00016924	0.0024812
0.22	0.042272	-7.6991	0.40429	0.0010157	0.00018851	0.0023345
0.222	0.044286	-8.6588	0.40815	0.00086253	0.00020779	0.0021878
0.224	0.045653	-9.6386	0.41102	0.00070936	0.00022706	0.0020411
0.226	0.04644	-10.638	0.41389	0.0005562	0.00024633	0.0018944
0.228	0.046814	-11.661	0.4149	0.00037403	0.00045095	0.0015539
0.23	0.046986	-12.707	0.4159	0.00019186	0.00065556	0.0012134
0.232	0.04716	-13.778	0.41659	9.6848e-06	0.00086017	0.00087289
0.234	0.04747	-14.873	0.41696	-0.00017249	0.0010648	0.00053239
0.236	0.047952	-15.992	0.41734	-0.00035466	0.0012694	0.00019188
0.238	0.048542	-17.135	0.41876	-0.00045074	0.0014302	-0.00014561
0.24	0.049095	-18.3	0.42018	-0.00054682	0.001591	-0.0004831
0.242	0.049434	-19.488	0.42271	-0.0006429	0.0017517	-0.00082059
0.244	0.049399	-20.694	0.42635	-0.00073898	0.0019125	-0.0011581
0.246	0.048898	-21.919	0.42999	-0.00083506	0.0020733	-0.0014956
0.248	0.047934	-23.157	0.43569	-0.00095376	0.0019292	-0.001618
0.25	0.046604	-24.408	0.44139	-0.0010725	0.0017852	-0.0017405
0.252	0.04508	-25.666	0.44721	-0.0011912	0.0016411	-0.0018629
0.254	0.043564	-26.93	0.45316	-0.0013099	0.0014971	-0.0019854
0.256	0.042238	-28.193	0.45911	-0.0014286	0.001353	-0.0021078
0.258	0.041217	-29.454	0.46224	-0.0016873	0.0009536	-0.0019742
0.26	0.040525	-30.705	0.46536	-0.0019459	0.00055416	-0.0018405
0.262	0.040086	-31.946	0.46535	-0.0022046	0.00015471	-0.0017068
0.264	0.039744	-33.167	0.46223	-0.0024632	-0.00024473	-0.0015731
0.266	0.039304	-34.368	0.4591	-0.0027219	-0.00064417	-0.0014394
0.268	0.038576	-35.54	0.44713	-0.0029339	-0.00098426	-0.0011705
0.27	0.037423	-36.682	0.43516	-0.0031459	-0.0013244	-0.00090159
0.272	0.035789	-37.784	0.41833	-0.0033579	-0.0016645	-0.00063268
0.274	0.03371	-38.846	0.39665	-0.0035699	-0.0020045	-0.00036377
0.276	0.031304	-39.859	0.37496	-0.0037819	-0.0023446	-9.4861e-05
0.278	0.028735	-40.823	0.34476	-0.0035887	-0.0024375	0.00017609
0.28	0.026179	-41.728	0.31456	-0.0033955	-0.0025304	0.00044703
0.282	0.02378	-42.574	0.28153	-0.0032022	-0.0026233	0.00071798
0.284	0.021618	-43.354	0.24567	-0.003009	-0.0027162	0.00098892
0.286	0.019703	-44.066	0.20982	-0.0028158	-0.002809	0.0012599
0.288	0.017973	-44.703	0.17187	-0.0022046	-0.0028	0.0014773
0.29	0.016319	-45.266	0.13392	-0.0015934	-0.0027909	0.0016948
0.292	0.01462	-45.748	0.096499	-0.00098222	-0.0027818	0.0019122
0.294	0.01277	-46.148	0.059604	-0.00037103	-0.0027728	0.0021297
0.296	0.010709	-46.461	0.022708	0.00024015	-0.0027637	0.0023471
0.298	0.0084303	-46.687	-0.011279	0.00076597	-0.0028761	0.0025092
0.3	0.0059825	-46.822	-0.045266	0.0012918	-0.0029885	0.0026714
0.302	0.0034498	-46.865	-0.077651	0.0018176	-0.003101	0.0028335
0.304	0.00092732	-46.814	-0.10843	0.0023434	-0.0032134	0.0029956
0.306	-0.0015057	-46.668	-0.13922	0.0028692	-0.0033258	0.0031578
0.308	-0.0038059	-46.425	-0.16767	0.0028283	-0.0035036	0.0032354
0.31	-0.0059763	-46.085	-0.19613	0.0027874	-0.0036814	0.0033129
0.312	-0.008063	-45.648	-0.22403	0.0027465	-0.0038591	0.0033905
0.314	-0.010141	-45.112	-0.25139	0.0027056	-0.0040369	0.0034681
0.316	-0.012294	-44.479	-0.27874	0.0026647	-0.0042147	0.0035457
0.318	-0.014591	-43.748	-0.30568	0.0021929	-0.0041345	0.0034163
0.32	-0.017066	-42.919	-0.33262	0.001721	-0.0040544	0.003287
0.322	-0.019716	-41.993	-0.35917	0.0012492	-0.0039742	0.0031576
0.324	-0.022497	-40.972	-0.38532	0.00077733	-0.003894	0.0030282
0.326	-0.025341	-39.856	-0.41146	0.00030549	-0.0038139	0.0028989
0.328	-0.028166	-38.646	-0.43542	3.5834e-05	-0.0032727	0.0024301
0.33	-0.030905	-37.344	-0.45938	-0.00023382	-0.0027316	0.0019612
0.332	-0.033508	-35.953	-0.48134	-0.00050347	-0.0021905	0.0014924
0.334	-0.035957	-34.472	-0.5013	-0.00077312	-0.0016494	0.0010236
0.336	-0.038261	-32.906	-0.52127	-0.0010428	-0.0011083	0.00055482
0.338	-0.040447	-31.256	-0.53594	-0.00065611	-0.00035701	-0.00016556
0.34	-0.042543	-29.525	-0.55061	-0.00026945	0.00039431	-0.00088594
0.342	-0.044569	-27.713	-0.56261	0.00011722	0.0011456	-0.0016063
0.344	-0.046526	-25.828	-0.57193	0.00050388	0.0018969	-0.0023267
0.346	-0.048394	-23.868	-0.58126	0.00089054	0.0026483	-0.0030471
0.348	-0.050134	-21.84	-0.58671	0.0017264	0.0030556	-0.0036471
0.35	-0.051706	-19.744	-0.59217	0.0025622	0.0034629	-0.0042472
0.352	-0.053075	-17.587	-0.59699	0.003398	0.0038703	-0.0048472
0.354	-0.054226	-15.369	-0.60118	0.0042338	0.0042776	-0.0054473
0.356	-0.055169	-13.098	-0.60536	0.0050696	0.004685	-0.0060474
0.358	-0.055937	-10.774	-0.61111	0.0056421	0.0044598	-0.0061708
0.36	-0.056582	-8.4054	-0.61686	0.0062146	0.0042345	-0.0062943
0.362	-0.057155	-5.992	-0.62437	0.0067871	0.0040093	-0.0064177
0.364	-0.057696	-3.5428	-0.63363	0.0073596	0.0037841	-0.0065412
0.366	-0.058218	-1.0578	-0.6429	0.007932	0.0035589	-0.0066646
0.368	-0.058706	1.4536	-0.65594	0.0076794	0.0030127	-0.0063121
0.37	-0.059116	3.9915	-0.66899	0.0074267	0.0024666	-0.0059596
0.372	-0.059383	6.5463	-0.68312	0.0071741	0.0019204	-0.0056071
0.374	-0.059445	9.1179	-0.69833	0.0069214	0.0013743	-0.0052546
0.376	-0.059249	11.697	-0.71354	0.0066687	0.00082811	-0.0049021
0.378	-0.058772	14.282	-0.72792	0.0057532	0.00049309	-0.0043955
0.38	-0.058027	16.865	-0.7423	0.0048376	0.00015806	-0.003889
0.382	-0.05706	19.446	-0.75461	0.003922	-0.00017697	-0.0033824
0.384	-0.055937	22.015	-0.76484	0.0030064	-0.000512	-0.0028759
0.386	-0.054731	24.572	-0.77508	0.0020908	-0.00084702	-0.0023693
0.388	-0.0535	27.108	-0.77867	0.0012784	-0.00084078	-0.0020065
0.39	-0.052268	29.623	-0.78226	0.00046602	-0.00083454	-0.0016436
0.392	-0.051022	32.109	-0.78211	-0.00034637	-0.0008283	-0.0012807
0.394	-0.049706	34.567	-0.77822	-0.0011588	-0.00082206	-0.00091785
0.396	-0.048233	36.989	-0.77433	-0.0019712	-0.00081582	-0.00055498
0.398	-0.046505	39.374	-0.76396	-0.0020752	-0.00077469	-0.00037375
0.4	-0.044433	41.718	-0.75359	-0.0021793	-0.00073356	-0.00019253
0.402	-0.041963	44.02	-0.74114	-0.0022834	-0.00069242	-1.1302e-05
0.404	-0.039085	46.275	-0.72661	-0.0023874	-0.00065129	0.00016992
0.406	-0.035844	48.484	-0.71208	-0.0024915	-0.00061016	0.00035115
0.408	-0.032336	50.644	-0.69603	-0.0020442	-0.00076721	0.00047302
0.41	-0.028688	52.754	-0.67998	-0.0015969	-0.00092427	0.00059489
0.412	-0.025041	54.813	-0.66415	-0.0011496	-0.0010813	0.00071677
0.414	-0.021524	56.821	-0.64853	-0.00070226	-0.0012384	0.00083864
0.416	-0.018232	58.779	-0.6329	-0.00025495	-0.0013954	0.00096052
0.418	-0.015214	60.685	-0.61826	6.3836e-05	-0.0016349	0.0010673
0.42	-0.012462	62.543	-0.60362	0.00038262	-0.0018744	0.0011741
0.422	-0.0099261	64.351	-0.58904	0.0007014	-0.0021139	0.0012809
0.424	-0.0075183	66.113	-0.57452	0.0010202	-0.0023534	0.0013877
0.426	-0.0051385	67.83	-0.56	0.001339	-0.0025928	0.0014944
0.428	-0.0026932	69.504	-0.54392	0.0011166	-0.0026911	0.0015041
0.43	-0.00011395	71.138	-0.52783	0.00089422	-0.0027893	0.0015137
0.432	0.0026314	72.735	-0.51019	0.00067184	-0.0028876	0.0015234
0.434	0.0055335	74.296	-0.49101	0.00044947	-0.0029858	0.0015331
0.436	0.0085457	75.827	-0.47182	0.00022709	-0.0030841	0.0015427
0.438	0.011594	77.328	-0.44907	-0.00026476	-0.0029937	0.0014169
0.44	0.014591	78.807	-0.42632	-0.00075662	-0.0029033	0.0012912
0.442	0.017452	80.262	-0.40235	-0.0012485	-0.0028129	0.0011654
0.444	0.020109	81.701	-0.37716	-0.0017403	-0.0027225	0.0010396
0.446	0.022519	83.123	-0.35196	-0.0022322	-0.0026321	0.00091387
0.448	0.02467	84.536	-0.3269	-0.0024301	-0.0024636	0.00075154
0.45	0.026579	85.938	-0.30183	-0.002628	-0.0022951	0.00058922
0.452	0.028287	87.337	-0.27846	-0.0028259	-0.0021267	0.00042689
0.454	0.029852	88.732	-0.2568	-0.0030238	-0.0019582	0.00026457
0.456	0.031334	90.128	-0.23514	-0.0032217	-0.0017897	0.00010224
0.458	0.03279	91.525	-0.21984	-0.0029318	-0.001657	1.2125e-05
0.46	0.034259	92.926	-0.20455	-0.002642	-0.0015244	-7.7994e-05
0.462	0.03576	94.332	-0.19327	-0.0023521	-0.0013917	-0.00016811
0.464	0.03729	95.746	-0.18602	-0.0020622	-0.001259	-0.00025823
0.466	0.038822	97.166	-0.17876	-0.0017724	-0.0011263	-0.00034835
0.468	0.040314	98.593	-0.1794	-0.0013233	-0.0010681	-0.00035859
0.47	0.041715	100.03	-0.18004	-0.00087425	-0.0010098	-0.00036883
0.472	0.04298	101.47	-0.18367	-0.00042519	-0.00095161	-0.00037908
0.474	0.044076	102.92	-0.19029	2.3867e-05	-0.00089338	-0.00038932
0.476	0.044993	104.37	-0.19691	0.00047292	-0.00083515	-0.00039956
0.478	0.045749	105.83	-0.20647	0.00066821	-0.00081441	-0.00035532
0.48	0.046389	107.28	-0.21602	0.00086349	-0.00079367	-0.00031108
0.482	0.046981	108.73	-0.22542	0.0010588	-0.00077293	-0.00026685
0.484	0.047605	110.18	-0.23465	0.0012541	-0.00075219	-0.00022261
0.486	0.048333	111.62	-0.24387	0.0014493	-0.00073145	-0.00017837
0.488	0.049222	113.05	-0.25019	0.0013258	-0.00067839	-8.4404e-05
0.49	0.050293	114.46	-0.25651	0.0012022	-0.00062532	9.5633e-06
0.492	0.051527	115.85	-0.26072	0.0010786	-0.00057226	0.00010353
0.494	0.052863	117.21	-0.26282	0.00095502	-0.00051919	0.0001975
0.496	0.054205	118.55	-0.26491	0.00083145	-0.00046613	0.00029147
0.498	0.055437	119.85	-0.26285	0.00062418	-0.00034113	0.00038048
0.5	0.056449	121.12	-0.26079	0.00041691	-0.00021613	0.00046948
0.502	0.057148	122.34	-0.25722	0.00020965	-9.1128e-05	0.00055849
0.504	0.057488	123.52	-0.25216	2.3847e-06	3.3872e-05	0.0006475
0.506	0.057471	124.64	-0.24709	-0.00020488	0.00015887	0.00073651
0.508	0.057156	125.71	-0.24068	-0.00029777	0.00034105	0.0007166
0.51	0.056644	126.72	-0.23427	-0.00039066	0.00052323	0.00069668
0.512	0.056063	127.67	-0.22797	-0.00048355	0.0007054	0.00067676
0.514	0.055541	128.56	-0.22178	-0.00057644	0.00088758	0.00065685
0.516	0.055187	129.37	-0.21559	-0.00066934	0.0010698	0.00063693
0.518	0.055068	130.11	-0.21066	-0.00063179	0.0012617	0.00049343
0.52	0.055197	130.78	-0.20574	-0.00059424	0.0014536	0.00034992
0.522	0.055539	131.37	-0.20158	-0.0005567	0.0016455	0.00020642
0.524	0.056018	131.89	-0.19819	-0.00051915	0.0018374	6.2911e-05
0.526	0.056539	132.32	-0.1948	-0.00048161	0.0020294	-8.0594e-05
0.528	0.057005	132.69	-0.19254	-0.00035562	0.0021562	-0.00021866
0.53	0.057345	132.97	-0.19027	-0.00022962	0.0022831	-0.00035672
0.532	0.057523	133.18	-0.18808	-0.00010363	0.00241	-0.00049478
0.534	0.057546	133.31	-0.18598	2.2357e-05	0.0025369	-0.00063284
0.536	0.057453	133.37	-0.18387	0.00014835	0.0026637	-0.00077091
0.538	0.057306	133.36	-0.18069	0.0003443	0.0026224	-0.00076613
0.54	0.057167	133.28	-0.17751	0.00054025	0.002581	-0.00076135
0.542	0.057084	133.13	-0.17314	0.00073621	0.0025397	-0.00075657
0.544	0.05707	132.93	-0.16759	0.00093216	0.0024983	-0.00075179
0.546	0.057109	132.67	-0.16204	0.0011281	0.0024569	-0.00074702
0.548	0.057151	132.35	-0.15297	0.0013224	0.0021942	-0.0005972
0.55	0.057131	131.99	-0.1439	0.0015168	0.0019316	-0.00044738
0.552	0.056987	131.59	-0.13267	0.0017111	0.0016689	-0.00029757
0.554	0.056675	131.15	-0.11927	0.0019054	0.0014062	-0.00014775
0.556	0.056181	130.67	-0.10587	0.0020998	0.0011435	2.0649e-06
0.558	0.055528	130.17	-0.087804	0.0021501	0.00076479	0.00018148
0.56	0.054773	129.65	-0.069741	0.0022004	0.0003861	0.0003609
0.562	0.053986	129.12	-0.049496	0.0022507	7.3998e-06	0.00054032
0.564	0.053238	128.58	-0.027067	0.002301	-0.0003713	0.00071974
0.566	0.052584	128.03	-0.004638	0.0023513	-0.00074999	0.00089916
0.568	0.052046	127.48	0.02118	0.0021911	-0.0010253	0.00099816
0.57	0.051617	126.94	0.046997	0.0020308	-0.0013006	0.0010972
0.572	0.05126	126.41	0.07371	0.0018706	-0.001576	0.0011962
0.574	0.050926	125.9	0.10132	0.0017103	-0.0018513	0.0012952
0.576	0.050571	125.41	0.12893	0.0015501	-0.0021266	0.0013942
0.578	0.050173	124.94	0.15631	0.0012808	-0.0021462	0.0013787
0.58	0.049747	124.5	0.18369	0.0010115	-0.0021658	0.0013632
0.582	0.049337	124.09	0.2099	0.00074224	-0.0021853	0.0013477
0.584	0.049016	123.72	0.23495	0.00047296	-0.0022049	0.0013322
0.586	0.048861	123.38	0.25999	0.00020369	-0.0022245	0.0013168
0.588	0.048932	123.08	0.28083	-2.1678e-05	-0.0019983	0.0011971
0.59	0.049254	122.82	0.30168	-0.00024704	-0.0017721	0.0010775
0.592	0.049802	122.6	0.31976	-0.00047241	-0.0015458	0.0009578
0.594	0.050501	122.42	0.33508	-0.00069778	-0.0013196	0.00083814
0.596	0.05124	122.27	0.3504	-0.00092314	-0.0010934	0.00071848
0.598	0.051894	122.17	0.35956	-0.0010154	-0.00076621	0.00050451
0.6	0.052354	122.1	0.36872	-0.0011076	-0.000439	0.00029055
0.602	0.052554	122.08	0.37481	-0.0011999	-0.00011179	7.6579e-05
0.604	0.052489	122.08	0.37783	-0.0012921	0.00021542	-0.00013739
0.606	0.052217	122.11	0.38086	-0.0013844	0.00054263	-0.00035136
0.608	0.051852	122.17	0.37829	-0.0012497	0.00073054	-0.00064145
0.61	0.051532	122.26	0.37573	-0.0011151	0.00091844	-0.00093154
0.612	0.05139	122.37	0.37081	-0.00098039	0.0011064	-0.0012216
0.614	0.051518	122.5	0.36354	-0.00084572	0.0012943	-0.0015117
0.616	0.051943	122.63	0.35627	-0.00071106	0.0014822	-0.0018018
0.618	0.052618	122.78	0.34538	-0.00023948	0.0013258	-0.0021127
0.62	0.053431	122.93	0.33449	0.0002321	0.0011695	-0.0024236
0.622	0.054232	123.09	0.32241	0.00070368	0.0010132	-0.0027344
0.624	0.054866	123.23	0.30913	0.0011753	0.00085683	-0.0030453
0.626	0.055215	123.38	0.29586	0.0016468	0.0007005	-0.0033562
0.628	0.055231	123.5	0.28158	0.0023375	0.00028107	-0.0035858
0.63	0.054944	123.61	0.2673	0.0030281	-0.00013835	-0.0038153
0.632	0.054465	123.7	0.25326	0.0037187	-0.00055778	-0.0040449
