t	ekg	optical	pressure	accel_x	accel_y	accel_z
0	0.062051	-37.742	10.198	0.01768	0.037723	0.044516
0.002	0.065895	-38.075	10.39	0.016727	0.037572	0.04639
0.004	0.070111	-38.408	10.581	0.015775	0.037421	0.048263
0.006	0.074577	-38.741	10.773	0.014822	0.03727	0.050136
0.008	0.079088	-39.017	10.964	0.013869	0.03712	0.052009
0.01	0.083394	-39.234	11.141	0.012917	0.036969	0.053882
0.012	0.087261	-39.37	11.303	0.011964	0.036818	0.055756
0.014	0.09052	-39.425	11.464	0.011012	0.036667	0.057629
0.016	0.09312	-39.382	11.591	0.010271	0.036084	0.05886
0.018	0.095143	-39.241	11.718	0.0095298	0.035501	0.060091
0.02	0.096804	-38.991	11.826	0.008789	0.034918	0.061322
0.022	0.098405	-38.632	11.916	0.0080481	0.034335	0.062553
0.024	0.10028	-38.161	12.005	0.0073073	0.033752	0.063784
0.026	0.10272	-37.578	12.059	0.0069872	0.03307	0.064317
0.028	0.10592	-36.889	12.113	0.0066672	0.032388	0.064849
0.03	0.10993	-36.094	12.153	0.0063472	0.031706	0.065382
0.032	0.11462	-35.206	12.178	0.0060272	0.031023	0.065915
0.034	0.11976	-34.226	12.203	0.0057071	0.030341	0.066448
0.036	0.12501	-33.175	12.21	0.0056642	0.029773	0.06676
0.038	0.13001	-32.053	12.216	0.0056213	0.029204	0.067071
0.04	0.13447	-30.889	12.219	0.0055785	0.028636	0.067383
0.042	0.13821	-29.684	12.218	0.0055356	0.028067	0.067695
0.044	0.14122	-28.471	12.217	0.0054927	0.027499	0.068007
0.046	0.14362	-27.252	12.216	0.0053872	0.027061	0.068649
0.048	0.14568	-26.066	12.215	0.0052816	0.026624	0.069292
0.05	0.14769	-24.913	12.215	0.0051761	0.026186	0.069934
0.052	0.14997	-23.836	12.217	0.0050706	0.025749	0.070576
0.054	0.15272	-22.835	12.218	0.0049651	0.025311	0.071218
0.056	0.15603	-21.953	12.217	0.0046109	0.024797	0.072281
0.058	0.15981	-21.19	12.216	0.0042567	0.024283	0.073344
0.06	0.16384	-20.59	12.209	0.0039025	0.023769	0.074407
0.062	0.16778	-20.152	12.195	0.0035483	0.023255	0.07547
0.064	0.17126	-19.916	12.181	0.0031941	0.022741	0.076533
0.066	0.17394	-19.883	12.141	0.002671	0.021846	0.07767
0.068	0.17561	-20.088	12.102	0.0021479	0.020951	0.078807
0.07	0.1762	-20.531	12.043	0.0016249	0.020057	0.079944
0.072	0.1758	-21.241	11.964	0.0011018	0.019162	0.081081
0.074	0.17468	-22.219	11.886	0.0005787	0.018268	0.082218
0.076	0.17318	-23.486	11.761	0.00011604	0.01682	0.083133
0.078	0.17171	-25.043	11.635	-0.00034662	0.015372	0.084048
0.08	0.1706	-26.903	11.485	-0.00080929	0.013924	0.084963
0.082	0.1701	-29.067	11.31	-0.001272	0.012476	0.085878
0.084	0.17028	-31.538	11.134	-0.0017346	0.011028	0.086793
0.086	0.17107	-34.318	10.912	-0.0019705	0.0091153	0.087521
0.088	0.17223	-37.401	10.69	-0.0022064	0.0072024	0.088248
0.09	0.17342	-40.787	10.447	-0.0024423	0.0052895	0.088975
0.092	0.17428	-44.464	10.185	-0.0026782	0.0033767	0.089702
0.094	0.17447	-48.432	9.9221	-0.0029141	0.0014638	0.09043
0.096	0.17376	-52.668	9.6283	-0.0030577	-0.00062683	0.091139
0.098	0.1721	-57.172	9.3344	-0.0032012	-0.0027175	0.091849
0.1	0.16957	-61.917	9.0292	-0.0033448	-0.0048081	0.092559
0.102	0.16643	-66.901	8.7127	-0.0034884	-0.0068988	0.093269
0.104	0.16303	-72.089	8.3961	-0.0036319	-0.0089894	0.093978
0.106	0.15976	-77.482	8.0644	-0.0040971	-0.010982	0.094674
0.108	0.15699	-83.039	7.7326	-0.0045622	-0.012975	0.095369
0.11	0.15499	-88.76	7.3966	-0.0050274	-0.014968	0.096064
0.112	0.15386	-94.602	7.0562	-0.0054925	-0.016961	0.096759
0.114	0.15355	-100.56	6.7159	-0.0059577	-0.018954	0.097455
0.116	0.15386	-106.6	6.3737	-0.0069856	-0.020751	0.097899
0.118	0.15443	-112.72	6.0315	-0.0080135	-0.022548	0.098344
0.12	0.15491	-118.86	5.6921	-0.0090414	-0.024345	0.098789
0.122	0.15494	-125.03	5.3557	-0.010069	-0.026142	0.099233
0.124	0.15428	-131.2	5.0193	-0.011097	-0.027939	0.099678
0.126	0.15283	-137.34	4.6978	-0.012362	-0.02953	0.099593
0.128	0.15067	-143.44	4.3764	-0.013627	-0.031121	0.099507
0.13	0.14806	-149.48	4.0672	-0.014893	-0.032712	0.099421
0.132	0.14534	-155.42	3.7703	-0.016158	-0.034303	0.099336
0.134	0.14289	-161.28	3.4735	-0.017423	-0.035894	0.09925
0.136	0.14105	-167.02	3.2101	-0.018296	-0.037129	0.098606
0.138	0.13998	-172.63	2.9467	-0.01917	-0.038363	0.097962
0.14	0.13969	-178.09	2.703	-0.020044	-0.039598	0.097318
0.142	0.13993	-183.41	2.4791	-0.020917	-0.040833	0.096674
0.144	0.1403	-188.55	2.2552	-0.021791	-0.042067	0.09603
0.146	0.14026	-193.53	2.073	-0.022006	-0.042645	0.095145
0.148	0.13927	-198.32	1.8908	-0.022221	-0.043224	0.09426
0.15	0.1369	-202.94	1.7285	-0.022435	-0.043802	0.093375
0.152	0.13293	-207.36	1.5863	-0.02265	-0.04438	0.09249
0.154	0.12742	-211.59	1.444	-0.022865	-0.044958	0.091604
0.156	0.12073	-215.64	1.3374	-0.022783	-0.044717	0.09087
0.158	0.11345	-219.49	1.2308	-0.0227	-0.044476	0.090136
0.16	0.10636	-223.15	1.1396	-0.022618	-0.044235	0.089401
0.162	0.10019	-226.63	1.0638	-0.022536	-0.043994	0.088667
0.164	0.095595	-229.93	0.98807	-0.022453	-0.043753	0.087933
0.166	0.09291	-233.05	0.94016	-0.022681	-0.042878	0.087458
0.168	0.092138	-236	0.89226	-0.022909	-0.042002	0.086984
0.17	0.092907	-238.78	0.85834	-0.023138	-0.041127	0.08651
0.172	0.094532	-241.41	0.83842	-0.023366	-0.040252	0.086036
0.174	0.096141	-243.89	0.8185	-0.023594	-0.039377	0.085562
0.176	0.096839	-246.23	0.82974	-0.024426	-0.038242	0.085133
0.178	0.095883	-248.44	0.84099	-0.025258	-0.037108	0.084704
0.18	0.092834	-250.53	0.87018	-0.026091	-0.035974	0.084275
0.182	0.087641	-252.49	0.91732	-0.026923	-0.034839	0.083846
0.184	0.080661	-254.36	0.96446	-0.027756	-0.033705	0.083417
0.186	0.072584	-256.13	1.0513	-0.028944	-0.03256	0.082736
0.188	0.064296	-257.81	1.1382	-0.030133	-0.031415	0.082054
0.19	0.056697	-259.4	1.2452	-0.031322	-0.03027	0.081373
0.192	0.050525	-260.93	1.3723	-0.03251	-0.029125	0.080692
0.194	0.046203	-262.38	1.4994	-0.033699	-0.02798	0.080011
0.196	0.043763	-263.78	1.6625	-0.03467	-0.026893	0.078887
0.198	0.04285	-265.13	1.8256	-0.035642	-0.025807	0.077762
0.2	0.042802	-266.43	2.0022	-0.036613	-0.02472	0.076638
0.202	0.042806	-267.69	2.1923	-0.037584	-0.023634	0.075513
0.204	0.042068	-268.91	2.3824	-0.038555	-0.022548	0.074389
0.206	0.039985	-270.09	2.5876	-0.038859	-0.021603	0.072781
0.208	0.036268	-271.25	2.7928	-0.039163	-0.020659	0.071174
0.21	0.030994	-272.37	2.9993	-0.039467	-0.019715	0.069567
0.212	0.024575	-273.48	3.2073	-0.039771	-0.018771	0.06796
0.214	0.017661	-274.55	3.4152	-0.040075	-0.017826	0.066353
0.216	0.010986	-275.61	3.6161	-0.039706	-0.017122	0.064409
0.218	0.0052199	-276.64	3.817	-0.039336	-0.016418	0.062465
0.22	0.00082102	-277.64	4.0118	-0.038967	-0.015714	0.060521
0.222	-0.0020413	-278.62	4.2005	-0.038598	-0.01501	0.058577
0.224	-0.0035	-279.58	4.3892	-0.038228	-0.014306	0.056633
0.226	-0.0039343	-280.51	4.566	-0.037548	-0.013716	0.054624
0.228	-0.0038632	-281.41	4.7428	-0.036868	-0.013126	0.052614
0.23	-0.0038135	-282.28	4.9161	-0.036188	-0.012536	0.050605
0.232	-0.0042	-283.12	5.0858	-0.035508	-0.011946	0.048595
0.234	-0.0052397	-283.93	5.2556	-0.034828	-0.011357	0.046586
0.236	-0.0069221	-284.69	5.4262	-0.034207	-0.010544	0.044661
0.238	-0.0090412	-285.42	5.5968	-0.033585	-0.0097313	0.042735
0.24	-0.011271	-286.1	5.7721	-0.032964	-0.0089186	0.04081
0.242	-0.013263	-286.74	5.952	-0.032343	-0.0081059	0.038885
0.244	-0.014742	-287.33	6.1319	-0.031721	-0.0072932	0.036959
0.246	-0.015569	-287.87	6.328	-0.031281	-0.0060938	0.035014
0.248	-0.01576	-288.35	6.5242	-0.03084	-0.0048944	0.033069
0.25	-0.015453	-288.78	6.7304	-0.030399	-0.003695	0.031123
0.252	-0.014848	-289.15	6.9466	-0.029959	-0.0024956	0.029178
0.254	-0.014119	-289.46	7.1629	-0.029518	-0.0012962	0.027233
0.256	-0.013354	-289.7	7.3993	-0.029179	6.2501e-05	0.025146
0.258	-0.012516	-289.89	7.6357	-0.028839	0.0014212	0.023059
0.26	-0.011462	-290.01	7.8801	-0.028499	0.0027799	0.020973
0.262	-0.0099998	-290.06	8.1325	-0.02816	0.0041386	0.018886
0.264	-0.0079787	-290.04	8.3849	-0.02782	0.0054973	0.016799
0.266	-0.0053804	-289.96	8.6452	-0.02746	0.0066564	0.014703
0.268	-0.0023839	-289.81	8.9055	-0.027099	0.0078154	0.012606
0.27	0.00062036	-289.59	9.164	-0.026738	0.0089744	0.01051
0.272	0.0030785	-289.3	9.4206	-0.026378	0.010133	0.008414
0.274	0.0043788	-288.94	9.6772	-0.026017	0.011292	0.0063177
0.276	0.0039947	-288.52	9.9159	-0.025526	0.012095	0.0044733
0.278	0.0016268	-288.03	10.155	-0.025035	0.012898	0.002629
0.28	-0.0026924	-287.48	10.377	-0.024544	0.013701	0.00078456
0.282	-0.0085592	-286.87	10.582	-0.024053	0.014504	-0.0010598
0.284	-0.015246	-286.19	10.787	-0.023563	0.015307	-0.0029042
0.286	-0.021832	-285.46	10.945	-0.022848	0.015788	-0.0044324
0.288	-0.027394	-284.67	11.103	-0.022134	0.016269	-0.0059606
0.29	-0.031204	-283.83	11.232	-0.02142	0.01675	-0.0074888
0.292	-0.032911	-282.94	11.331	-0.020706	0.017231	-0.009017
0.294	-0.032634	-282	11.431	-0.019992	0.017711	-0.010545
0.296	-0.030963	-281.03	11.468	-0.019078	0.017876	-0.011917
0.298	-0.028844	-280.01	11.505	-0.018164	0.01804	-0.013288
0.3	-0.027389	-278.95	11.512	-0.01725	0.018204	-0.01466
0.302	-0.027626	-277.87	11.489	-0.016335	0.018369	-0.016032
0.304	-0.030275	-276.76	11.467	-0.015421	0.018533	-0.017403
0.306	-0.03558	-275.63	11.396	-0.014532	0.018259	-0.018706
0.308	-0.043248	-274.48	11.325	-0.013644	0.017984	-0.020009
0.31	-0.052508	-273.32	11.237	-0.012755	0.01771	-0.021312
0.312	-0.062283	-272.16	11.134	-0.011866	0.017435	-0.022615
0.314	-0.071425	-270.99	11.031	-0.010977	0.017161	-0.023918
0.316	-0.078975	-269.83	10.914	-0.010337	0.016285	-0.025027
0.318	-0.084365	-268.68	10.797	-0.0096964	0.015409	-0.026136
0.32	-0.087534	-267.55	10.681	-0.0090562	0.014533	-0.027244
0.322	-0.08893	-266.44	10.566	-0.0084159	0.013657	-0.028353
0.324	-0.089375	-265.36	10.45	-0.0077756	0.01278	-0.029462
0.326	-0.08987	-264.31	10.345	-0.0072849	0.011291	-0.030295
0.328	-0.091361	-263.3	10.24	-0.0067943	0.0098026	-0.031128
0.33	-0.094539	-262.34	10.14	-0.0063036	0.0083136	-0.03196
0.332	-0.099732	-261.43	10.044	-0.0058129	0.0068247	-0.032793
0.334	-0.10692	-260.57	9.9482	-0.0053223	0.0053357	-0.033626
0.336	-0.11586	-259.78	9.853	-0.0046942	0.0035272	-0.034396
0.338	-0.12631	-259.06	9.7577	-0.0040662	0.0017188	-0.035165
0.34	-0.13824	-258.41	9.6555	-0.0034381	-8.9705e-05	-0.035935
0.342	-0.15204	-257.84	9.5462	-0.0028101	-0.0018982	-0.036705
0.344	-0.16858	-257.35	9.4369	-0.002182	-0.0037066	-0.037474
0.346	-0.18909	-256.94	9.2984	-0.0014271	-0.0053485	-0.038453
0.348	-0.21495	-256.63	9.16	-0.00067227	-0.0069903	-0.039431
0.35	-0.24731	-256.41	9.0015	8.2606e-05	-0.0086321	-0.04041
0.352	-0.28662	-256.28	8.8231	0.00083748	-0.010274	-0.041388
0.354	-0.33231	-256.25	8.6447	0.0015924	-0.011916	-0.042367
0.356	-0.38256	-256.32	8.4231	0.002151	-0.013119	-0.043441
0.358	-0.43426	-256.48	8.2015	0.0027096	-0.014322	-0.044516
0.36	-0.48333	-256.75	7.961	0.0032683	-0.015525	-0.04559
0.362	-0.52513	-257.11	7.7016	0.0038269	-0.016728	-0.046664
0.364	-0.55519	-257.57	7.4422	0.0043856	-0.017931	-0.047739
0.366	-0.56986	-258.12	7.1574	0.0046169	-0.018906	-0.048496
0.368	-0.56697	-258.76	6.8726	0.0048482	-0.019881	-0.049253
0.37	-0.5462	-259.49	6.583	0.0050796	-0.020856	-0.05001
0.372	-0.50929	-260.29	6.2885	0.0053109	-0.021831	-0.050768
0.374	-0.45979	-261.17	5.994	0.0055422	-0.022806	-0.051525
0.376	-0.40258	-262.12	5.705	0.0056663	-0.023937	-0.051827
0.378	-0.34316	-263.12	5.4161	0.0057904	-0.025068	-0.052128
0.38	-0.28689	-264.18	5.1358	0.0059144	-0.026199	-0.05243
0.382	-0.23819	-265.27	4.8641	0.0060385	-0.02733	-0.052731
0.384	-0.19998	-266.39	4.5924	0.0061626	-0.028461	-0.053033
0.386	-0.17343	-267.53	4.345	0.0063934	-0.0297	-0.053219
0.388	-0.15793	-268.67	4.0975	0.0066242	-0.030939	-0.053405
0.39	-0.15145	-269.8	3.8636	0.0068551	-0.032178	-0.053592
0.392	-0.15104	-270.91	3.6433	0.0070859	-0.033417	-0.053778
0.394	-0.15344	-271.98	3.423	0.0073167	-0.034656	-0.053964
0.396	-0.15573	-272.99	3.231	0.0076593	-0.035388	-0.054417
0.398	-0.15577	-273.94	3.0389	0.0080019	-0.03612	-0.054871
0.4	-0.15246	-274.79	2.8616	0.0083444	-0.036852	-0.055325
0.402	-0.14575	-275.55	2.699	0.008687	-0.037584	-0.055778
0.404	-0.13646	-276.18	2.5365	0.0090296	-0.038316	-0.056232
0.406	-0.12593	-276.68	2.4065	0.0093946	-0.037919	-0.057008
0.408	-0.11557	-277.02	2.2765	0.0097596	-0.037522	-0.057784
0.41	-0.10656	-277.2	2.1651	0.010125	-0.037126	-0.058559
0.412	-0.099538	-277.18	2.0725	0.01049	-0.036729	-0.059335
0.414	-0.094548	-276.96	1.9799	0.010855	-0.036332	-0.060111
0.416	-0.091081	-276.52	1.93	0.011135	-0.034784	-0.061039
0.418	-0.088287	-275.84	1.8801	0.011415	-0.033236	-0.061966
0.42	-0.085249	-274.91	1.8535	0.011696	-0.031689	-0.062894
0.422	-0.081241	-273.73	1.8502	0.011976	-0.030141	-0.063822
0.424	-0.075928	-272.26	1.8469	0.012256	-0.028593	-0.064749
0.426	-0.069448	-270.51	1.8909	0.012371	-0.026444	-0.065631
0.428	-0.062365	-268.46	1.9349	0.012486	-0.024295	-0.066513
0.43	-0.055517	-266.11	2.0007	0.012601	-0.022147	-0.067394
0.432	-0.049789	-263.45	2.0885	0.012716	-0.019998	-0.068276
0.434	-0.045891	-260.46	2.1762	0.012831	-0.017849	-0.069157
0.436	-0.044176	-257.16	2.3003	0.012869	-0.015687	-0.069817
0.438	-0.044549	-253.53	2.4244	0.012907	-0.013525	-0.070476
0.44	-0.046492	-249.58	2.5616	0.012944	-0.011363	-0.071135
0.442	-0.04918	-245.31	2.712	0.012982	-0.0092005	-0.071795
0.444	-0.051677	-240.72	2.8624	0.013019	-0.0070383	-0.072454
0.446	-0.053141	-235.82	3.0282	0.013231	-0.0051194	-0.072831
0.448	-0.053008	-230.62	3.194	0.013442	-0.0032005	-0.073209
0.45	-0.0511	-225.12	3.3625	0.013654	-0.0012816	-0.073586
0.452	-0.047645	-219.34	3.5338	0.013865	0.00063725	-0.073963
0.454	-0.043201	-213.28	3.7051	0.014077	0.0025561	-0.074341
0.456	-0.038506	-206.98	3.8741	0.014588	0.0042019	-0.074586
0.458	-0.034304	-200.43	4.043	0.015099	0.0058477	-0.074831
0.46	-0.031173	-193.68	4.2082	0.01561	0.0074934	-0.075077
0.462	-0.0294	-186.71	4.3697	0.016121	0.0091392	-0.075322
0.464	-0.02894	-179.58	4.5312	0.016632	0.010785	-0.075568
0.466	-0.029442	-172.29	4.6825	0.017241	0.012122	-0.075853
0.468	-0.030355	-164.88	4.8338	0.01785	0.01346	-0.076138
0.47	-0.031067	-157.35	4.9797	0.018459	0.014798	-0.076424
0.472	-0.031049	-149.76	5.1201	0.019067	0.016135	-0.076709
0.474	-0.029974	-142.1	5.2606	0.019676	0.017473	-0.076994
0.476	-0.027777	-134.44	5.3907	0.020056	0.018436	-0.077214
0.478	-0.024649	-126.76	5.5207	0.020435	0.019399	-0.077433
0.48	-0.020977	-119.13	5.646	0.020814	0.020363	-0.077653
0.482	-0.017234	-111.54	5.7665	0.021193	0.021326	-0.077872
0.484	-0.013864	-104.04	5.8871	0.021572	0.02229	-0.078091
0.486	-0.01118	-96.65	5.9985	0.021623	0.022871	-0.077922
0.488	-0.0092987	-89.404	6.11	0.021673	0.023452	-0.077752
0.49	-0.0081336	-82.305	6.2167	0.021723	0.024033	-0.077583
0.492	-0.0074311	-75.401	6.3187	0.021774	0.024614	-0.077413
0.494	-0.0068515	-68.69	6.4206	0.021824	0.025195	-0.077244
0.496	-0.0060637	-62.214	6.5112	0.021733	0.025458	-0.076515
0.498	-0.0048306	-55.972	6.6019	0.021641	0.025722	-0.075786
0.5	-0.0030684	-49.998	6.6855	0.02155	0.025985	-0.075058
0.502	-0.00086527	-44.29	6.7621	0.021459	0.026249	-0.074329
0.504	0.0015441	-38.876	6.8387	0.021367	0.026512	-0.0736
0.506	0.0038399	-33.753	6.8982	0.021309	0.026549	-0.072434
0.508	0.0056959	-28.939	6.9576	0.021251	0.026585	-0.071267
0.51	0.0068561	-24.433	7.0075	0.021193	0.026621	-0.070101
0.512	0.0071908	-20.243	7.0476	0.021134	0.026658	-0.068934
0.514	0.0067209	-16.369	7.0878	0.021076	0.026694	-0.067768
0.516	0.0056068	-12.808	7.1085	0.020937	0.026549	-0.06634
0.518	0.0041044	-9.5603	7.1292	0.020797	0.026404	-0.064912
0.52	0.0024999	-6.6151	7.1413	0.020658	0.026259	-0.063484
0.522	0.0010435	-3.9723	7.1448	0.020518	0.026114	-0.062056
0.524	-0.00010253	-1.6128	7.1483	0.020379	0.02597	-0.060628
0.526	-0.00089231	0.46327	7.139	0.01988	0.025576	-0.058998
0.528	-0.0013948	2.2822	7.1298	0.01938	0.025183	-0.057369
0.53	-0.0017625	3.8439	7.1167	0.018881	0.02479	-0.055739
0.532	-0.0021819	5.1805	7.0997	0.018382	0.024396	-0.05411
0.534	-0.0028171	6.2919	7.0827	0.017883	0.024003	-0.05248
0.536	-0.0037609	7.2145	7.0613	0.017019	0.023211	-0.050735
0.538	-0.0050075	7.9482	7.0399	0.016156	0.022419	-0.048991
0.54	-0.0064496	8.532	7.0162	0.015292	0.021628	-0.047246
0.542	-0.0079007	8.9661	6.9902	0.014429	0.020836	-0.045502
0.544	-0.0091361	9.2903	6.9642	0.013565	0.020044	-0.043757
0.546	-0.0099433	9.5048	6.9291	0.012794	0.018776	-0.042118
0.548	-0.010168	9.6487	6.8939	0.012024	0.017507	-0.040479
0.55	-0.009746	9.722	6.8503	0.011253	0.016239	-0.038839
0.552	-0.0087092	9.7619	6.7982	0.010482	0.01497	-0.0372
0.554	-0.0071746	9.7684	6.7462	0.0097111	0.013701	-0.035561
0.556	-0.0053081	9.7746	6.6692	0.0095333	0.012069	-0.034157
0.558	-0.0032825	9.7806	6.5922	0.0093556	0.010436	-0.032752
0.56	-0.0012336	9.815	6.5006	0.0091778	0.0088034	-0.031348
0.562	0.00077334	9.8776	6.3943	0.0090001	0.0071708	-0.029943
0.564	0.0027532	9.9912	6.288	0.0088223	0.0055381	-0.028539
0.566	0.0047933	10.156	6.1548	0.0091952	0.0038115	-0.027185
0.568	0.0070258	10.388	6.0216	0.0095682	0.0020848	-0.025831
0.57	0.009584	10.687	5.8801	0.0099411	0.00035818	-0.024478
0.572	0.012559	11.064	5.7303	0.010314	-0.0013685	-0.023124
0.574	0.015966	11.517	5.5806	0.010687	-0.0030951	-0.02177
0.576	0.019726	12.052	5.4309	0.011039	-0.0046012	-0.020178
0.578	0.023672	12.668	5.2811	0.01139	-0.0061073	-0.018586
0.58	0.027577	13.363	5.1405	0.011742	-0.0076134	-0.016994
0.582	0.031201	14.136	5.009	0.012093	-0.0091195	-0.015403
0.584	0.034338	14.981	4.8775	0.012445	-0.010626	-0.013811
0.586	0.03687	15.899	4.7783	0.012313	-0.011641	-0.011995
0.588	0.038793	16.877	4.6792	0.01218	-0.012656	-0.010178
0.59	0.040224	17.916	4.5989	0.012048	-0.013671	-0.0083623
0.592	0.041383	19.003	4.5375	0.011915	-0.014686	-0.0065461
0.594	0.042548	20.137	4.4761	0.011782	-0.015702	-0.0047299
0.596	0.043995	21.305	4.4471	0.011255	-0.016077	-0.0030397
0.598	0.045938	22.507	4.4181	0.010728	-0.016452	-0.0013495
0.6	0.04848	23.727	4.3983	0.010201	-0.016828	0.00034071
0.602	0.051587	24.967	4.3877	0.0096741	-0.017203	0.0020309
0.604	0.05509	26.214	4.3772	0.009147	-0.017578	0.0037211
0.606	0.058724	27.468	4.3678	0.008558	-0.017353	0.0049937
0.608	0.062186	28.719	4.3585	0.0079689	-0.017128	0.0062662
0.61	0.065206	29.968	4.3429	0.0073799	-0.016903	0.0075388
0.612	0.067621	31.21	4.3212	0.0067909	-0.016678	0.0088113
0.614	0.069416	32.444	4.2994	0.0062018	-0.016453	0.010084
0.616	0.07075	33.669	4.2607	0.0055387	-0.015814	0.010986
0.618	0.071927	34.886	4.2221	0.0048756	-0.015175	0.011888
0.62	0.073345	36.099	4.1784	0.0042125	-0.014536	0.01279
0.622	0.07541	37.309	4.1298	0.0035494	-0.013897	0.013693
0.624	0.078447	38.524	4.0812	0.0028863	-0.013258	0.014595
0.626	0.082619	39.746	4.0387	0.0017884	-0.012386	0.015349
0.628	0.087881	40.988	3.9961	0.00069041	-0.011515	0.016104
0.63	0.093967	42.25	3.9663	-0.00040754	-0.010643	0.016859
0.632	0.10043	43.551	3.949	-0.0015055	-0.0097711	0.017613
0.634	0.10674	44.892	3.9318	-0.0026034	-0.0088993	0.018368
0.636	0.11234	46.294	3.9549	-0.0042071	-0.0078977	0.019105
0.638	0.11682	47.757	3.978	-0.0058108	-0.0068961	0.019843
0.64	0.11995	49.306	4.0239	-0.0074144	-0.0058945	0.02058
0.642	0.12177	50.939	4.0926	-0.0090181	-0.0048929	0.021317
0.644	0.12256	52.682	4.1612	-0.010622	-0.0038913	0.022055
0.646	0.1228	54.534	4.2686	-0.012123	-0.0028654	0.022796
0.648	0.12305	56.519	4.376	-0.013624	-0.0018395	0.023537
0.65	0.12385	58.636	4.4946	-0.015124	-0.00081354	0.024279
0.652	0.1256	60.907	4.6244	-0.016625	0.00021238	0.02502
0.654	0.12847	63.331	4.7542	-0.018126	0.0012383	0.025761
0.656	0.13235	65.926	4.8863	-0.018773	0.002138	0.026444
0.658	0.13689	68.69	5.0185	-0.01942	0.0030377	0.027127
0.66	0.14156	71.635	5.1433	-0.020067	0.0039374	0.02781
0.662	0.14577	74.762	5.2607	-0.020714	0.004837	0.028493
0.664	0.149	78.074	5.3782	-0.02136	0.0057367	0.029176
0.666	0.15094	81.571	5.4717	-0.021148	0.0064347	0.029541
0.668	0.15149	85.252	5.5653	-0.020936	0.0071327	0.029907
0.67	0.15086	89.116	5.6467	-0.020723	0.0078307	0.030273
0.672	0.14946	93.152	5.7159	-0.020511	0.0085286	0.030639
0.674	0.14781	97.361	5.7852	-0.020298	0.0092266	0.031005
0.676	0.14644	101.73	5.8358	-0.019989	0.0097915	0.030711
0.678	0.14574	106.24	5.8863	-0.01968	0.010356	0.030416
0.68	0.14586	110.89	5.9307	-0.019371	0.010921	0.030121
