t	ekg	optical	pressure	accel_x	accel_y	accel_z
0	0.014165	81.455	-1.9023	0.010814	-0.0023383	0.0036889
0.002	0.016081	83.275	-1.8998	0.010661	-0.0019086	0.0037859
0.004	0.017794	85.094	-1.8974	0.010509	-0.0014789	0.0038829
0.006	0.019453	86.914	-1.8949	0.010357	-0.0010492	0.0039798
0.008	0.021209	88.679	-1.8944	0.010204	-0.00061946	0.0040768
0.01	0.023176	90.39	-1.896	0.010052	-0.00018976	0.0041738
0.012	0.025398	92.044	-1.8976	0.0098997	0.00023995	0.0042707
0.014	0.02784	93.64	-1.9042	0.009586	0.00050156	0.0040666
0.016	0.030396	95.176	-1.9108	0.0092724	0.00076317	0.0038624
0.018	0.032912	96.652	-1.92	0.0089587	0.0010248	0.0036583
0.02	0.035225	98.064	-1.9319	0.0086451	0.0012864	0.0034541
0.022	0.0372	99.412	-1.9437	0.0083314	0.001548	0.0032499
0.024	0.03876	100.69	-1.9594	0.0075928	0.0015271	0.0026465
0.026	0.039903	101.91	-1.9752	0.0068543	0.0015062	0.002043
0.028	0.040703	103.05	-1.9915	0.0061157	0.0014853	0.0014395
0.03	0.041283	104.13	-2.0083	0.0053772	0.0014644	0.00083599
0.032	0.041792	105.13	-2.0251	0.0046386	0.0014435	0.00023251
0.034	0.042363	106.07	-2.0389	0.0035586	0.0013402	-0.00048061
0.036	0.043085	106.93	-2.0526	0.0024786	0.0012369	-0.0011937
0.038	0.043978	107.72	-2.0624	0.0013987	0.0011336	-0.0019068
0.04	0.044998	108.43	-2.0683	0.0003187	0.0010303	-0.0026199
0.042	0.046045	109.07	-2.0742	-0.00076128	0.00092703	-0.0033331
0.044	0.046991	109.64	-2.0678	-0.0017396	0.0010479	-0.0038456
0.046	0.047711	110.14	-2.0613	-0.0027179	0.0011688	-0.0043582
0.048	0.048118	110.57	-2.0472	-0.0036962	0.0012896	-0.0048707
0.05	0.04818	110.93	-2.0253	-0.0046745	0.0014105	-0.0053833
0.052	0.047929	111.22	-2.0035	-0.0056528	0.0015314	-0.0058958
0.054	0.047452	111.44	-1.9652	-0.006163	0.0019361	-0.0061556
0.056	0.046868	111.6	-1.9269	-0.0066733	0.0023409	-0.0064154
0.058	0.046298	111.7	-1.8812	-0.0071836	0.0027456	-0.0066752
0.06	0.045839	111.74	-1.8279	-0.0076939	0.0031504	-0.006935
0.062	0.045536	111.71	-1.7747	-0.0082041	0.0035551	-0.0071947
0.064	0.04538	111.64	-1.71	-0.0082491	0.0039626	-0.0071813
0.066	0.045305	111.5	-1.6453	-0.0082941	0.0043701	-0.0071678
0.068	0.045212	111.32	-1.5774	-0.0083391	0.0047776	-0.0071544
0.07	0.044995	111.08	-1.5064	-0.0083841	0.0051851	-0.0071409
0.072	0.044566	110.8	-1.4353	-0.0084291	0.0055926	-0.0071275
0.074	0.043881	110.47	-1.3634	-0.008162	0.0056831	-0.0066604
0.076	0.042952	110.11	-1.2916	-0.0078949	0.0057737	-0.0061933
0.078	0.041843	109.7	-1.2219	-0.0076278	0.0058643	-0.0057262
0.08	0.040656	109.25	-1.1545	-0.0073607	0.0059549	-0.005259
0.082	0.039509	108.76	-1.0871	-0.0070937	0.0060455	-0.0047919
0.084	0.038505	108.24	-1.0284	-0.0065383	0.0057898	-0.003824
0.086	0.037712	107.69	-0.96966	-0.005983	0.0055341	-0.002856
0.088	0.037145	107.11	-0.91667	-0.0054276	0.0052783	-0.0018881
0.09	0.036768	106.5	-0.86943	-0.0048723	0.0050226	-0.00092017
0.092	0.036503	105.86	-0.82219	-0.0043169	0.0047669	4.7771e-05
0.094	0.036253	105.19	-0.78782	-0.0034995	0.0043906	0.0011252
0.096	0.035924	104.49	-0.75345	-0.0026821	0.0040143	0.0022026
0.098	0.035453	103.78	-0.72556	-0.0018647	0.003638	0.00328
0.1	0.03482	103.04	-0.70415	-0.0010473	0.0032617	0.0043574
0.102	0.034054	102.27	-0.68274	-0.00022995	0.0028854	0.0054348
0.104	0.033225	101.49	-0.67334	0.00058247	0.0025719	0.0060416
0.106	0.032426	100.68	-0.66395	0.0013949	0.0022584	0.0066485
0.108	0.031747	99.854	-0.65971	0.0022073	0.0019449	0.0072554
0.11	0.031256	99.008	-0.66064	0.0030197	0.0016314	0.0078623
0.112	0.030979	98.145	-0.66156	0.0038322	0.0013179	0.0084692
0.114	0.030895	97.264	-0.67063	0.0042706	0.0010555	0.0083605
0.116	0.030947	96.367	-0.6797	0.0047091	0.0007932	0.0082518
0.118	0.031049	95.454	-0.69165	0.0051476	0.00053088	0.0081431
0.12	0.031119	94.526	-0.7065	0.0055861	0.00026855	0.0080343
0.122	0.031093	93.585	-0.72134	0.0060246	6.2299e-06	0.0079256
0.124	0.030949	92.631	-0.73972	0.0059726	-0.00028111	0.0073185
0.126	0.030709	91.665	-0.75809	0.0059206	-0.00056846	0.0067114
0.128	0.030436	90.69	-0.77733	0.0058686	-0.0008558	0.0061043
0.13	0.030218	89.706	-0.79742	0.0058167	-0.0011431	0.0054971
0.132	0.030146	88.714	-0.81751	0.0057647	-0.0014305	0.00489
0.134	0.03029	87.716	-0.83817	0.005447	-0.001722	0.0041264
0.136	0.030679	86.715	-0.85884	0.0051293	-0.0020135	0.0033628
0.138	0.031295	85.71	-0.87959	0.0048116	-0.002305	0.0025992
0.14	0.032074	84.705	-0.90042	0.0044939	-0.0025965	0.0018355
0.142	0.032919	83.7	-0.92125	0.0041762	-0.002888	0.0010719
0.144	0.033725	82.698	-0.94243	0.0038823	-0.0030949	0.00034475
0.146	0.034401	81.699	-0.96361	0.0035883	-0.0033019	-0.00038243
0.148	0.034894	80.708	-0.98517	0.0032943	-0.0035088	-0.0011096
0.15	0.035197	79.724	-1.0071	0.0030003	-0.0037157	-0.0018368
0.152	0.035354	78.75	-1.029	0.0027064	-0.0039226	-0.002564
0.154	0.035443	77.787	-1.0519	0.0024753	-0.0040201	-0.0031424
0.156	0.035559	76.838	-1.0748	0.0022442	-0.0041177	-0.0037208
0.158	0.035791	75.903	-1.0979	0.0020131	-0.0042152	-0.0042992
0.16	0.036195	74.985	-1.1212	0.0017821	-0.0043128	-0.0048776
0.162	0.036787	74.083	-1.1446	0.001551	-0.0044103	-0.005456
0.164	0.037536	73.201	-1.1672	0.0011783	-0.004454	-0.0057325
0.166	0.038376	72.338	-1.1899	0.0008057	-0.0044977	-0.0060091
0.168	0.039226	71.497	-1.2112	0.00043306	-0.0045414	-0.0062856
0.17	0.040009	70.676	-1.2313	6.0427e-05	-0.0045851	-0.0065621
0.172	0.040673	69.878	-1.2514	-0.00031221	-0.0046288	-0.0068387
0.174	0.041207	69.103	-1.2669	-0.00093325	-0.0046264	-0.0067119
0.176	0.041641	68.35	-1.2824	-0.0015543	-0.0046241	-0.0065851
0.178	0.042034	67.62	-1.2947	-0.0021753	-0.0046217	-0.0064582
0.18	0.042459	66.912	-1.3039	-0.0027964	-0.0046194	-0.0063314
0.182	0.042978	66.227	-1.3131	-0.0034174	-0.004617	-0.0062046
0.184	0.043619	65.563	-1.315	-0.0040207	-0.0044549	-0.005766
0.186	0.044369	64.92	-1.3169	-0.0046239	-0.0042928	-0.0053274
0.188	0.045171	64.297	-1.3153	-0.0052272	-0.0041307	-0.0048888
0.19	0.045936	63.693	-1.3101	-0.0058304	-0.0039685	-0.0044502
0.192	0.046569	63.105	-1.3049	-0.0064337	-0.0038064	-0.0040116
0.194	0.046994	62.535	-1.2937	-0.0065427	-0.0033728	-0.0034946
0.196	0.047175	61.978	-1.2825	-0.0066518	-0.0029392	-0.0029776
0.198	0.047135	61.435	-1.2692	-0.0067608	-0.0025056	-0.0024606
0.2	0.046952	60.902	-1.2538	-0.0068699	-0.002072	-0.0019436
0.202	0.046745	60.379	-1.2385	-0.0069789	-0.0016383	-0.0014266
0.204	0.046649	59.863	-1.2211	-0.0063688	-0.0010224	-0.0010212
0.206	0.046776	59.352	-1.2038	-0.0057588	-0.00040649	-0.00061585
0.208	0.047193	58.844	-1.1864	-0.0051487	0.00020944	-0.00021049
0.21	0.047895	58.339	-1.1691	-0.0045386	0.00082537	0.00019488
0.212	0.048806	57.832	-1.1517	-0.0039285	0.0014413	0.00060024
0.214	0.049791	57.323	-1.1361	-0.0028775	0.0019326	0.00085163
0.216	0.05069	56.809	-1.1204	-0.0018264	0.0024239	0.001103
0.218	0.05135	56.289	-1.1062	-0.0007754	0.0029153	0.0013544
0.22	0.051668	55.76	-1.0934	0.00027563	0.0034066	0.0016058
0.222	0.051616	55.223	-1.0806	0.0013267	0.0038979	0.0018572
0.224	0.051249	54.674	-1.0713	0.0022737	0.0039976	0.0020081
0.226	0.050697	54.112	-1.062	0.0032207	0.0040973	0.002159
0.228	0.050134	53.537	-1.0545	0.0041678	0.0041971	0.0023099
0.23	0.049734	52.947	-1.0488	0.0051148	0.0042968	0.0024608
0.232	0.049634	52.34	-1.0432	0.0060619	0.0043965	0.0026117
0.234	0.049892	51.717	-1.0408	0.0065474	0.0041607	0.0027066
0.236	0.050477	51.077	-1.0384	0.007033	0.0039249	0.0028016
0.238	0.051272	50.419	-1.0374	0.0075186	0.0036891	0.0028966
0.24	0.052103	49.742	-1.0376	0.0080041	0.0034533	0.0029915
0.242	0.052778	49.048	-1.0379	0.0084897	0.0032175	0.0030865
0.244	0.05314	48.335	-1.0397	0.0085397	0.0029633	0.003123
0.246	0.053101	47.604	-1.0416	0.0085896	0.0027091	0.0031594
0.248	0.052666	46.856	-1.0437	0.0086396	0.0024549	0.0031959
0.25	0.051927	46.09	-1.0461	0.0086896	0.0022006	0.0032324
0.252	0.05104	45.308	-1.0485	0.0087395	0.0019464	0.0032689
0.254	0.050181	44.51	-1.0506	0.0085798	0.0018731	0.0032275
0.256	0.049496	43.698	-1.0527	0.00842	0.0017998	0.0031862
0.258	0.049055	42.871	-1.0544	0.0082602	0.0017265	0.0031449
0.26	0.048836	42.031	-1.0558	0.0081005	0.0016532	0.0031036
0.262	0.04872	41.18	-1.0572	0.0079407	0.0015799	0.0030623
0.264	0.048528	40.318	-1.0581	0.0077203	0.0015605	0.0029358
0.266	0.048065	39.447	-1.059	0.0074999	0.0015411	0.0028092
0.268	0.047183	38.569	-1.0599	0.0072794	0.0015217	0.0026827
0.27	0.045828	37.683	-1.0609	0.007059	0.0015022	0.0025561
0.272	0.04407	36.793	-1.0619	0.0068386	0.0014828	0.0024296
0.274	0.042102	35.898	-1.0638	0.0065294	0.0013017	0.0022292
0.276	0.040198	35.001	-1.0657	0.0062201	0.0011205	0.0020287
0.278	0.03866	34.102	-1.0682	0.0059109	0.0009394	0.0018283
0.28	0.037736	33.204	-1.0715	0.0056017	0.00075826	0.0016279
0.282	0.037555	32.305	-1.0747	0.0052925	0.00057712	0.0014275
0.284	0.038084	31.409	-1.0792	0.0047735	0.00027786	0.0011905
0.286	0.039117	30.516	-1.0836	0.0042545	-2.1396e-05	0.0009535
0.288	0.040314	29.626	-1.0881	0.0037355	-0.00032065	0.00071651
0.29	0.041272	28.74	-1.0928	0.0032165	-0.00061991	0.00047952
0.292	0.041615	27.859	-1.0974	0.0026975	-0.00091917	0.00024254
0.294	0.041087	26.982	-1.101	0.0019058	-0.0010383	2.3995e-05
0.296	0.039627	26.112	-1.1046	0.0011141	-0.0011575	-0.00019454
0.298	0.037393	25.246	-1.1071	0.00032238	-0.0012766	-0.00041308
0.3	0.034745	24.386	-1.1085	-0.00046933	-0.0013958	-0.00063162
0.302	0.032173	23.531	-1.1098	-0.001261	-0.0015149	-0.00085016
0.304	0.030197	22.68	-1.1086	-0.0021989	-0.0012542	-0.00101
0.306	0.02925	21.833	-1.1074	-0.0031369	-0.00099358	-0.0011699
0.308	0.029576	20.99	-1.1052	-0.0040748	-0.00073292	-0.0013297
0.31	0.03117	20.149	-1.1021	-0.0050127	-0.00047226	-0.0014896
0.312	0.03377	19.308	-1.099	-0.0059506	-0.00021159	-0.0016494
0.314	0.036905	18.468	-1.0955	-0.0066984	0.00025064	-0.0017297
0.316	0.039995	17.627	-1.092	-0.0074463	0.00071287	-0.00181
0.318	0.042473	16.783	-1.0893	-0.0081941	0.0011751	-0.0018903
0.32	0.043911	15.934	-1.0873	-0.008942	0.0016373	-0.0019706
0.322	0.044116	15.079	-1.0853	-0.0096898	0.0020996	-0.0020509
0.324	0.043165	14.216	-1.086	-0.0098835	0.0023492	-0.0020159
0.326	0.041397	13.344	-1.0867	-0.010077	0.0025989	-0.0019809
0.328	0.039331	12.46	-1.0886	-0.010271	0.0028485	-0.001946
0.33	0.037557	11.563	-1.0917	-0.010465	0.0030982	-0.001911
0.332	0.036606	10.65	-1.0949	-0.010658	0.0033478	-0.001876
0.334	0.036841	9.7213	-1.0989	-0.010193	0.0031639	-0.0016838
0.336	0.038387	8.7723	-1.1029	-0.0097273	0.00298	-0.0014915
0.338	0.041115	7.8035	-1.1059	-0.0092618	0.0027961	-0.0012993
0.34	0.044691	6.8116	-1.1079	-0.0087963	0.0026122	-0.0011071
0.342	0.048657	5.7965	-1.11	-0.0083308	0.0024283	-0.00091485
0.344	0.052544	4.7555	-1.1074	-0.0074717	0.0020028	-0.00059298
0.346	0.055974	3.6886	-1.1048	-0.0066126	0.0015773	-0.00027111
0.348	0.05873	2.5935	-1.0991	-0.0057536	0.0011518	5.0761e-05
0.35	0.06078	1.4703	-1.0903	-0.0048945	0.00072631	0.00037263
0.352	0.062251	0.31764	-1.0815	-0.0040354	0.00030083	0.0006945
0.354	0.063362	-0.86456	-1.067	-0.0032367	-7.6354e-06	0.0010063
0.356	0.06433	-2.0768	-1.0524	-0.002438	-0.0003161	0.001318
0.358	0.065293	-3.3189	-1.0363	-0.0016393	-0.00062456	0.0016298
0.36	0.066256	-4.5907	-1.0185	-0.00084062	-0.00093302	0.0019416
0.362	0.06708	-5.8919	-1.0007	-4.1921e-05	-0.0012415	0.0022533
0.364	0.067527	-7.2211	-0.98341	0.0003405	-0.0013042	0.0023684
0.366	0.067333	-8.5784	-0.96615	0.00072291	-0.0013669	0.0024834
0.368	0.066304	-9.9613	-0.95106	0.0011053	-0.0014296	0.0025984
0.37	0.064395	-11.37	-0.93816	0.0014877	-0.0014923	0.0027134
0.372	0.061752	-12.8	-0.92525	0.0018702	-0.001555	0.0028284
0.374	0.058707	-14.253	-0.91927	0.0017574	-0.0015501	0.0026452
0.376	0.05571	-15.724	-0.91328	0.0016446	-0.0015452	0.0024619
0.378	0.053222	-17.213	-0.91104	0.0015318	-0.0015404	0.0022787
0.38	0.051596	-18.715	-0.91255	0.001419	-0.0015355	0.0020955
0.382	0.050969	-20.23	-0.91406	0.0013062	-0.0015307	0.0019123
0.384	0.051198	-21.753	-0.92179	0.00090693	-0.0016634	0.0015211
0.386	0.051866	-23.283	-0.92952	0.00050762	-0.0017961	0.00113
0.388	0.052354	-24.817	-0.93924	0.00010831	-0.0019289	0.00073882
0.39	0.051969	-26.352	-0.95093	-0.00029101	-0.0020616	0.00034768
0.392	0.050096	-27.885	-0.96262	-0.00069032	-0.0021944	-4.3474e-05
0.394	0.046352	-29.414	-0.97617	-0.001063	-0.0024282	-0.00038946
0.396	0.040676	-30.935	-0.98971	-0.0014357	-0.002662	-0.00073545
0.398	0.033369	-32.448	-1.0036	-0.0018084	-0.0028959	-0.0010814
0.4	0.025029	-33.947	-1.018	-0.0021811	-0.0031297	-0.0014274
0.402	0.016439	-35.434	-1.0323	-0.0025538	-0.0033635	-0.0017734
0.404	0.0083944	-36.904	-1.0475	-0.0027679	-0.0034548	-0.0018597
0.406	0.001537	-38.357	-1.0628	-0.002982	-0.003546	-0.001946
0.408	-0.0037754	-39.789	-1.0787	-0.0031961	-0.0036373	-0.0020323
0.41	-0.0075293	-41.203	-1.0955	-0.0034102	-0.0037285	-0.0021186
0.412	-0.010034	-42.594	-1.1122	-0.0036243	-0.0038198	-0.0022048
0.414	-0.011821	-43.963	-1.1305	-0.003802	-0.0035959	-0.0020505
0.416	-0.013501	-45.31	-1.1489	-0.0039798	-0.0033719	-0.0018961
0.418	-0.015611	-46.634	-1.1674	-0.0041575	-0.003148	-0.0017418
0.42	-0.018503	-47.937	-1.186	-0.0043353	-0.0029241	-0.0015874
0.422	-0.022305	-49.217	-1.2046	-0.004513	-0.0027001	-0.0014331
0.424	-0.02697	-50.476	-1.2209	-0.0047551	-0.002285	-0.0012388
0.426	-0.032416	-51.716	-1.2371	-0.0049971	-0.00187	-0.0010444
0.428	-0.038697	-52.937	-1.2506	-0.0052392	-0.0014549	-0.00085006
0.43	-0.046181	-54.141	-1.2612	-0.0054813	-0.0010398	-0.00065571
0.432	-0.055655	-55.33	-1.2718	-0.0057233	-0.00062471	-0.00046137
0.434	-0.068333	-56.506	-1.2747	-0.0058584	-0.00034883	-0.00034331
0.436	-0.085717	-57.671	-1.2777	-0.0059935	-7.2955e-05	-0.00022525
0.438	-0.10933	-58.827	-1.2771	-0.0061286	0.00020292	-0.0001072
0.44	-0.14039	-59.977	-1.2729	-0.0062637	0.0004788	1.086e-05
0.442	-0.17939	-61.122	-1.2688	-0.0063988	0.00075468	0.00012892
0.444	-0.22584	-62.267	-1.2613	-0.0061512	0.00070798	0.00029733
0.446	-0.27807	-63.411	-1.2538	-0.0059036	0.00066127	0.00046574
0.448	-0.33323	-64.56	-1.2476	-0.0056559	0.00061457	0.00063415
0.45	-0.38759	-65.713	-1.2428	-0.0054083	0.00056787	0.00080256
0.452	-0.43688	-66.875	-1.238	-0.0051607	0.00052117	0.00097097
0.454	-0.47692	-68.045	-1.2418	-0.0045452	0.0003294	0.0013638
0.456	-0.50415	-69.228	-1.2456	-0.0039297	0.00013764	0.0017565
0.458	-0.51621	-70.423	-1.2552	-0.0033142	-5.4123e-05	0.0021493
0.46	-0.51224	-71.634	-1.2705	-0.0026986	-0.00024589	0.0025421
0.462	-0.49301	-72.859	-1.2859	-0.0020831	-0.00043765	0.0029349
0.464	-0.46083	-74.101	-1.3105	-0.0014936	-0.0004511	0.0033973
0.466	-0.41913	-75.361	-1.3351	-0.00090409	-0.00046456	0.0038598
0.468	-0.37199	-76.637	-1.3604	-0.00031457	-0.00047801	0.0043222
0.47	-0.32351	-77.932	-1.3865	0.00027494	-0.00049147	0.0047847
0.472	-0.27727	-79.244	-1.4126	0.00086446	-0.00050492	0.0052471
0.474	-0.23592	-80.573	-1.4288	0.0010564	-0.00025606	0.0052488
0.476	-0.20096	-81.918	-1.445	0.0012483	-7.2049e-06	0.0052504
0.478	-0.17276	-83.278	-1.4507	0.0014402	0.00024165	0.0052521
0.48	-0.15072	-84.652	-1.4461	0.0016322	0.00049051	0.0052538
0.482	-0.1336	-86.04	-1.4415	0.0018241	0.00073937	0.0052554
0.484	-0.11997	-87.438	-1.4101	0.0017199	0.0010268	0.0044251
0.486	-0.10846	-88.846	-1.3787	0.0016156	0.0013141	0.0035947
0.488	-0.098122	-90.261	-1.3351	0.0015114	0.0016015	0.0027644
0.49	-0.088456	-91.683	-1.2792	0.0014071	0.0018889	0.001934
0.492	-0.079426	-93.109	-1.2234	0.0013029	0.0021763	0.0011036
0.494	-0.071289	-94.537	-1.1544	0.0013705	0.0022613	-0.00015626
0.496	-0.064389	-95.965	-1.0854	0.0014381	0.0023464	-0.0014162
0.498	-0.058945	-97.393	-1.0187	0.0015057	0.0024314	-0.0026761
0.5	-0.054898	-98.817	-0.95431	0.0015733	0.0025164	-0.003936
0.502	-0.05186	-100.24	-0.8899	0.0016409	0.0026015	-0.0051959
0.504	-0.049164	-101.65	-0.84895	0.0021097	0.0024717	-0.0058583
0.506	-0.046013	-103.06	-0.808	0.0025785	0.0023419	-0.0065207
0.508	-0.041666	-104.46	-0.78568	0.0030473	0.0022121	-0.0071831
0.51	-0.035632	-105.85	-0.78199	0.0035161	0.0020823	-0.0078455
0.512	-0.027798	-107.23	-0.77831	0.0039848	0.0019525	-0.0085079
0.514	-0.018473	-108.61	-0.81564	0.0045441	0.0017836	-0.0079018
0.516	-0.0083334	-109.97	-0.85297	0.0051034	0.0016148	-0.0072956
0.518	0.0017258	-111.33	-0.90671	0.0056626	0.001446	-0.0066894
0.52	0.010787	-112.67	-0.97685	0.0062219	0.0012771	-0.0060832
0.522	0.018113	-114.01	-1.047	0.0067812	0.0011083	-0.005477
0.524	0.023305	-115.35	-1.1317	0.0069982	0.0010816	-0.0040444
0.526	0.026378	-116.67	-1.2164	0.0072153	0.0010549	-0.0026119
0.528	0.027747	-117.99	-1.2968	0.0074323	0.0010282	-0.0011794
0.53	0.028113	-119.31	-1.3729	0.0076494	0.0010016	0.00025317
0.532	0.028294	-120.63	-1.4491	0.0078664	0.00097488	0.0016857
0.534	0.029037	-121.94	-1.4955	0.0076819	0.001131	0.0027912
0.536	0.030848	-123.25	-1.5418	0.0074974	0.0012872	0.0038967
0.538	0.033895	-124.56	-1.5667	0.007313	0.0014433	0.0050021
0.54	0.03799	-125.88	-1.57	0.0071285	0.0015995	0.0061076
0.542	0.042656	-127.19	-1.5733	0.006944	0.0017556	0.0072131
0.544	0.047259	-128.51	-1.5316	0.0065818	0.0019453	0.0072311
0.546	0.051171	-129.83	-1.4899	0.0062195	0.0021349	0.0072492
0.548	0.053921	-131.15	-1.4303	0.0058573	0.0023245	0.0072672
0.55	0.055303	-132.47	-1.3528	0.005495	0.0025142	0.0072853
0.552	0.05541	-133.78	-1.2753	0.0051328	0.0027038	0.0073033
0.554	0.054598	-135.1	-1.1788	0.0047273	0.0026873	0.0064286
0.556	0.053385	-136.4	-1.0823	0.0043217	0.0026708	0.005554
0.558	0.052316	-137.7	-0.98606	0.0039162	0.0026543	0.0046793
0.56	0.051833	-138.98	-0.89	0.0035106	0.0026377	0.0038046
0.562	0.052168	-140.25	-0.79393	0.0031051	0.0026212	0.0029299
0.564	0.053301	-141.49	-0.71502	0.0026467	0.0022782	0.0019187
0.566	0.054978	-142.7	-0.63611	0.0021882	0.0019351	0.00090744
0.568	0.056787	-143.87	-0.57113	0.0017297	0.001592	-0.00010379
0.57	0.05827	-145.01	-0.52007	0.0012713	0.001249	-0.001115
0.572	0.059035	-146.09	-0.46901	0.00081284	0.00090593	-0.0021263
0.574	0.058857	-147.11	-0.44953	0.00035374	0.0003447	-0.0026393
0.576	0.05772	-148.07	-0.43004	-0.00010536	-0.00021653	-0.0031524
0.578	0.055819	-148.95	-0.42542	-0.00056446	-0.00077777	-0.0036655
0.58	0.053496	-149.74	-0.43564	-0.0010236	-0.001339	-0.0041786
0.582	0.051152	-150.44	-0.44587	-0.0014827	-0.0019002	-0.0046916
0.584	0.049146	-151.03	-0.48095	-0.0017832	-0.0024552	-0.0045409
0.586	0.047713	-151.52	-0.51603	-0.0020838	-0.0030103	-0.0043901
0.588	0.046906	-151.87	-0.5609	-0.0023844	-0.0035653	-0.0042394
0.59	0.046603	-152.09	-0.61554	-0.0026849	-0.0041203	-0.0040886
0.592	0.046542	-152.17	-0.67019	-0.0029855	-0.0046753	-0.0039379
0.594	0.046398	-152.09	-0.74019	-0.0030504	-0.0050613	-0.0033956
0.596	0.045869	-151.85	-0.81019	-0.0031153	-0.0054473	-0.0028533
0.598	0.044749	-151.44	-0.88635	-0.0031802	-0.0058334	-0.002311
0.6	0.04298	-150.85	-0.96867	-0.0032451	-0.0062194	-0.0017687
0.602	0.040654	-150.07	-1.051	-0.00331	-0.0066054	-0.0012264
0.604	0.037987	-149.1	-1.1428	-0.0032883	-0.0067622	-0.00074839
0.606	0.035253	-147.93	-1.2347	-0.0032667	-0.006919	-0.00027043
0.608	0.032717	-146.56	-1.3294	-0.0032451	-0.0070757	0.00020753
0.61	0.030567	-144.98	-1.4271	-0.0032235	-0.0072325	0.00068549
0.612	0.02887	-143.18	-1.5247	-0.0032018	-0.0073893	0.0011634
0.614	0.027561	-141.18	-1.6229	-0.0033581	-0.0073009	0.0012538
0.616	0.026473	-138.96	-1.7211	-0.0035144	-0.0072126	0.0013441
0.618	0.025381	-136.54	-1.8163	-0.0036707	-0.0071242	0.0014345
0.62	0.024068	-133.9	-1.9086	-0.0038269	-0.0070358	0.0015248
0.622	0.022378	-131.05	-2.0009	-0.0039832	-0.0069475	0.0016152
0.624	0.020261	-128	-2.0809	-0.0044334	-0.0066376	0.0012915
0.626	0.017777	-124.75	-2.161	-0.0048835	-0.0063277	0.00096786
0.628	0.015079	-121.31	-2.2325	-0.0053337	-0.0060178	0.00064421
0.63	0.012369	-117.68	-2.2956	-0.0057838	-0.0057079	0.00032056
0.632	0.0098438	-113.88	-2.3587	-0.006234	-0.005398	-3.0924e-06
0.634	0.0076468	-109.9	-2.4031	-0.0068393	-0.0049759	-0.00052884
0.636	0.0058312	-105.77	-2.4475	-0.0074447	-0.0045539	-0.0010546
0.638	0.0043522	-101.49	-2.4831	-0.0080501	-0.0041319	-0.0015803
0.64	0.0030835	-97.082	-2.5099	-0.0086555	-0.0037098	-0.0021061
0.642	0.0018551	-92.541	-2.5368	-0.0092608	-0.0032878	-0.0026318
